-535 -236 -580 -387 -186 6 113 -80 373 416 782 769 667 1067 1104 1135 875 255 364 136 148 213 637 839 680 655 655 1027 680 643 1048 1123 1103 690 1027 728 679 1049 954 977 1379 1498 1877 1442 1608 1631 1526 1917 1698 1777 1719 1738 2069 1928 1959 2142 2161 2309 2417 2177 2312 1981 1936 1947 1970 1945 2314 2351 2590 2885 3110 3028 3391 2999 2730 2554 2908 2741 2750 2717 2693 2738 3097 3139 3122 3159 2974 2961 2718 2486 2681 2540 3197 3212 3653 3942 3794 3956 3858 3462 3666 3555 3764 4197 4446 4276 4080 3822 3774 4176 4389 4673 4873 4589 4735 4529 4502 4601 4792 4780 4923 4917 5138 5117 5263 5717 5653 5317 5356 5731 5570 5630 5898 5926 5837 6258 6491 6701 6378 6468 6416 6431 6354 7032 7147 7518 7049 7026 6938 6942 6650 6893 7464 7316 7497 7488 7485 7491 7384 7594 7987 7664 7650 7655 7866 8453 8749 8436 8488 8275 8195 7912 8066 8534 8768 8634 8799 8378 8512 8523 8179 8271 7878 8004 7968 7894 8244 7820 7607 7698 7416 7334 7097 6995 6602 6622 6595 6740 6280 5882 5747 5411 4809 4513 4668 4393 4179 3915 3459 3278 3328 2752 2580 2085 1638 1303 907 1100 872 611 327 122 -372 -490 -1090 -972 -976 -1303 -1539 -1488 -1705 -2329 -2646 -2841 -2889 -2808 -3432 -3653 -3630 -3652 -3708 -3842 -3962 -3796 -4133 -3987 -4355 -4284 -4552 -4876 -4602 -4882 -4925 -4952 -4830 -5129 -4784 -4603 -4536 -4973 -5181 -4808 -4777 -4799 -4843 -5139 -5176 -5147 -4863 -4852 -4853 -4778 -4992 -4975 -4940 -4591 -4504 -4516 -4590 -4912 -4939 -4748 -4841 -5176 -5186 -5138 -4751 -4878 -4705 -4639 -4670 -4506 -4510 -4514 -4558 -4607 -4792 -4763 -4596 -4632 -4358 -4017 -4018 -4076 -4442 -4266 -4284 -4287 -4256 -4471 -4396 -4043 -4034 -4041 -4357 -4231 -4337 -4327 -4310 -4275 -4074 -3808 -3927 -3583 -3576 -3953 -3798 -3815 -3830 -3753 -3540 -3598 -3225 -3358 -3357 -3230 -3248 -3380 -2976 -3165 -2997 -3379 -3407 -3338 -2989 -2955 -2993 -3040 -3435 -3288 -3288 -3435 -3419 -3377 -3054 -3048 -3161 -2748 -2488 -2577 -2536 -3092 -2990 -3071 -3033 -2803 -2550 -2446 -2648 -2245 -2020 -1938 -1988 -2389 -2296 -2666 -2662 -2468 -2462 -2479 -2587 -2008 -1691 -1675 -1710 -1773 -1762 -1749 -2099 -2020 -2229 -2580 -2596 -2446 -2525 -2440 -2505 -2535 -2673 -2249 -2184 -2420 -2186 -2215 -2272 -2301 -2224 -2043 -2149 -1725 -1827 -1458 -1589 -1191 -1312 -932 -765 -688 -765 -956 -1156 -1255 -1235 -1163 -1352 -1301 -1342 -1235 -1647 -1458 -1409 -1273 -1342 -1143 -1083 -1052 -1056 -1072 -1064 -1049 -1039 -755 -707 -666 -670 -718 -1058 -1075 -1060 -755 -706 -691 -707 -652 -490 -542 -302 -112 326 243 563 550 602 608 583 591 404 776 652 865 402 145 -76 -243 -1044 -1182 -1476 -1673 -2163 -2383 -2262 -2278 -2213 -2223 -2302 -2571 -2268 -2375 -1968 -1990 -2314 -2353 -2415 -2348 -1963 -2133 -2076 -2100 -2156 -2170 -1922 -2009 -2349 -2269 -2665 -2537 -2521 -2636 -2273 -2607 -2635 -2661 -2608 -2295 -2410 -2021 -1957 -1929 -2140 -1987 -2332 -2194 -2210 -2416 -2193 -2178 -2324 -2334 -2329 -2000 -2029 -2382 -2254 -2249 -2183 -2385 -2315 -2013 -1969 -1974 -2175 -1995 -2427 -2279 -2428 -2048 -2048 -2042 -2333 -2145 -1839 -1607 -1196 -1327 -953 -1055 -565 226 1018 2144 2801 3880 4246 4898 5268 6440 7758 9340 10687 12552 13734 14892 15630 16333 17310 18292 18499 18018 16849 15731 13907 11702 10308 9013 7666 6518 4101 748 -1827 -3448 -4917 -6141 -8060 -9200 -10123 -10696 -11546 -12191 -12958 -13196 -12983 -12480 -11870 -10479 -9207 -8241 -6823 -5883 -5456 -4608 -4392 -3808 -3847 -3461 -3238 -3088 -2647 -2158 -1641 -901 -433 -317 89 127 111 -312 -220 -554 -449 -846 -1050 -1129 -723 -456 -531 -368 63 95 94 -102 -48 309 518 541 253 515 545 614 626 169 -5 86 -127 -67 -85 -119 -110 111 50 32 94 293 150 549 487 761 1074 874 568 154 137 223 392 467 646 1051 1143 994 1329 988 1314 1341 1357 1274 1428 1523 1521 1516 1798 1832 1908 1716 1791 1785 2051 2101 2161 2044 2040 2164 2150 1955 2013 2418 2390 2346 2430 2178 2387 2415 2609 2840 3076 2947 3196 3141 3169 2949 3055 3399 3445 3305 3710 3535 3516 3497 3504 3581 3937 4107 3989 4032 3995 4163 3806 3746 3766 4117 4217 4036 4456 4647 4720 4694 4640 4326 4239 4384 4474 4348 4491 4985 4780 4762 4815 4838 4854 5214 5202 5197 5013 5071 5094 5435 5652 5612 6173 6143 6526 6682 6762 6683 6372 6313 6471 6429 6426 6404 6448 6685 6890 7134 7502 7476 7433 7458 7127 7091 7465 7299 7534 7521 7303 7775 7584 7954 8059 7810 7865 8298 8507 8337 8111 7809 7729 7527 7322 7766 7848 8262 8229 7849 7984 7797 7707 7683 7397 7682 7341 7484 7109 7274 6898 6804 6562 6711 6308 6258 5909 5757 5375 5092 4815 4571 4646 4366 3811 3538 3247 2815 2463 2360 2108 1919 1517 1553 949 818 529 -13 -271 -224 -386 -826 -695 -1119 -1160 -1839 -2005 -2263 -2664 -2559 -2793 -2986 -3235 -3480 -3919 -3978 -4396 -4368 -4400 -4425 -4460 -4302 -4351 -4681 -4498 -4506 -4726 -4531 -4900 -4926 -4928 -4889 -4930 -4963 -4749 -5122 -5005 -5392 -5260 -5315 -5333 -5330 -5667 -5610 -6011 -5909 -5752 -5701 -5666 -5371 -5328 -5349 -5672 -5721 -5535 -5582 -5742 -5640 -5372 -5719 -5752 -5540 -5957 -5783 -6003 -5627 -5891 -6007 -5840 -5882 -5867 -5776 -6006 -5761 -6013 -5914 -5524 -5730 -5723 -5655 -5472 -5404 -5277 -5271 -5279 -5489 -5072 -5144 -4827 -4951 -4517 -4527 -4919 -4842 -4826 -4855 -5198 -5240 -5191 -4854 -4785 -4964 -4884 -4885 -4893 -4588 -4530 -4719 -4506 -4681 -4627 -4630 -4626 -4253 -4370 -4044 -4092 -4427 -4231 -4420 -4371 -4029 -4059 -4397 -4459 -4425 -3988 -3939 -3467 -3496 -3905 -3752 -3839 -4121 -3775 -3897 -3483 -3632 -3310 -3242 -3226 -3234 -3602 -3706 -3543 -3899 -3927 -3566 -3325 -3359 -3355 -3243 -3667 -3489 -3699 -3322 -3212 -3380 -3334 -3042 -2997 -2998 -3005 -2993 -3387 -3248 -3282 -3228 -3435 -3420 -3216 -3450 -3454 -3338 -2956 -3371 -3448 -2997 -2743 -2889 -2550 -2537 -2875 -2878 -2457 -2202 -2178 -2632 -2513 -2864 -2896 -2720 -2942 -2540 -2662 -2463 -2529 -2830 -2538 -2443 -2268 -2311 -2061 -1746 -1792 -2049 -1719 -1897 -1828 -1636 -1190 -1401 -1383 -1212 -1559 -1615 -1549 -1219 -1155 -1391 -993 -934 -974 -1352 -1187 -1190 -1182 -1408 -1333 -1304 -974 -910 -1065 -1132 -1017 -1198 -1203 -1194 -1241 -1260 -1153 -961 -724 -805 -402 -225 -142 -146 -140 -270 -123 -104 -64 341 208 525 153 -56 20 -141 -635 -1036 -1166 -1813 -2073 -1942 -2007 -2379 -2270 -2623 -2647 -2631 -2671 -2463 -2643 -2262 -2231 -2578 -2469 -2851 -2833 -2505 -2303 -2376 -2312 -2030 -2347 -2379 -2407 -2182 -2181 -2564 -2682 -2618 -2292 -2272 -2209 -2258 -2275 -2251 -2298 -2570 -2297 -2598 -2639 -2435 -2478 -2445 -2474 -2496 -2852 -2782 -3148 -2752 -2886 -2447 -2264 -2405 -2178 -2270 -2663 -2648 -2587 -2225 -2417 -1989 -2135 -2144 -1947 -1980 -2168 -2157 -1982 -2346 -2360 -2037 -2042 -2190 -2585 -2476 -2471 -2322 -1454 -858 520 1491 2818 3299 3759 4225 5240 6041 7312 9217 11004 13027 14912 15611 16437 17163 17816 18706 18730 17883 16898 14989 13377 11169 9517 7667 6470 4578 2291 -521 -2826 -4374 -5928 -7714 -9745 -11314 -12018 -12527 -12964 -13885 -14028 -14370 -13802 -13417 -12398 -10929 -9604 -8332 -7461 -6528 -5703 -4945 -4020 -3484 -3403 -2957 -2784 -2596 -2109 -1636 -1129 -482 -165 23 80 -274 -206 -446 -881 -740 -1108 -959 -1131 -939 -1227 -1438 -1439 -1278 -1290 -1066 -868 -458 -413 -604 -581 -553 -622 -588 -604 -414 -419 -402 -400 -568 -212 -348 85 -98 -93 -58 -125 37 10 -321 -283 90 -19 609 675 665 664 1054 1104 1028 491 552 620 818 761 1116 1302 1218 1542 1580 1566 1224 1355 956 1034 670 682 1024 912 1281 1284 1316 1384 1204 1203 1270 1636 1805 1668 1692 1697 1700 1690 1762 2127 2006 2011 2024 2340 2399 2385 2431 2244 2578 2675 2624 2596 2469 2824 2862 2942 3095 3031 3382 3339 3342 3433 3592 3608 3274 3256 3593 3477 3550 3557 3881 3928 3725 3755 4111 4175 3975 4084 4449 4288 4650 4488 4547 4606 4946 4985 4984 5122 5042 5425 5300 5753 6012 6020 6435 6498 6300 6309 6352 6719 6535 6528 6777 6627 6988 6941 6588 6717 6545 6831 7426 7368 7765 7713 7335 7499 7453 7163 7097 7164 7702 8043 8096 8532 8392 8780 8825 8795 8716 8348 8376 8385 8389 8418 8431 8357 8359 8711 8814 8831 8794 8809 8592 8612 8744 8512 8268 7921 8273 8163 8457 8148 8106 8286 8210 8063 7804 7545 7118 6894 6986 6560 6300 6258 6008 5523 5503 4996 4967 4333 4203 3531 3396 3118 2913 2514 2597 2343 2091 1868 1554 942 803 209 259 70 -380 -582 -853 -1150 -1408 -1621 -1667 -1965 -2562 -2864 -3172 -3416 -3607 -3698 -3651 -3659 -3676 -3506 -3950 -4171 -4037 -4061 -4374 -4463 -4255 -4627 -4550 -4892 -4744 -4737 -4781 -4845 -4836 -5198 -5101 -5291 -5669 -5511 -5754 -5252 -5009 -4776 -4957 -4973 -4980 -4746 -4864 -5031 -5053 -5001 -5129 -4832 -4840 -5187 -5033 -5392 -5277 -5330 -5307 -5344 -5358 -5658 -5740 -5755 -5551 -5755 -5714 -5706 -5286 -5431 -5234 -5135 -4827 -4829 -5122 -4801 -4859 -5188 -5247 -5117 -5436 -5251 -5328 -5657 -5633 -5319 -5472 -5383 -5401 -5407 -5439 -5415 -5404 -5065 -5014 -5217 -5142 -5159 -5174 -5133 -4763 -4900 -4568 -4729 -4485 -4489 -4688 -4661 -4614 -4280 -4464 -4478 -4306 -4329 -4320 -4284 -4460 -4075 -4218 -4157 -4146 -4142 -3840 -3826 -4113 -4130 -4153 -4134 -3826 -3767 -3773 -3828 -4134 -4161 -3839 -3716 -3902 -3841 -3571 -3549 -3517 -3482 -3643 -3612 -3615 -3589 -3252 -3210 -3401 -3061 -3330 -3254 -3510 -3934 -3827 -3816 -3715 -3865 -3475 -3698 -3459 -3520 -3535 -3910 -3756 -3806 -4118 -3829 -3827 -3795 -3719 -3933 -3509 -3322 -3422 -3377 -3224 -3600 -3459 -3565 -3547 -3543 -3546 -3482 -3620 -3252 -3406 -3054 -2987 -2990 -3012 -3160 -3089 -3115 -3195 -3028 -3235 -3635 -3588 -3371 -2704 -2216 -2094 -1864 -1799 -1799 -1480 -1604 -1158 -994 -1292 -1347 -1302 -940 -1111 -1049 -671 -870 -846 -810 -815 -663 -727 -1096 -907 -1136 -1038 -713 -658 -649 -677 -660 -776 -396 -572 -560 -622 -484 -832 -648 -744 -1108 -906 -979 -1316 -1310 -986 -1138 -716 -490 -231 -265 -9 166 516 614 776 672 662 643 640 825 399 197 -41 -258 -200 -774 -1010 -1442 -1745 -1956 -2396 -2667 -2891 -2742 -2750 -2808 -3160 -2966 -3101 -2867 -2454 -2606 -2275 -2224 -2415 -2354 -2042 -2173 -2074 -1768 -1741 -1713 -1718 -1713 -1732 -1754 -1762 -1713 -1706 -1762 -2088 -2138 -2156 -1967 -2047 -2422 -2200 -2260 -2561 -2667 -2456 -2674 -2570 -2244 -2591 -2558 -2745 -2773 -2748 -2752 -2926 -2817 -2866 -2699 -2871 -2670 -2422 -1938 -1781 -1753 -1733 -1691 -1667 -1690 -1779 -2153 -1966 -2423 -2291 -2258 -2188 -2397 -2423 -2364 -2126 -1841 -1164 -697 -568 106 628 1395 1984 2736 3704 4059 4924 5590 6819 8554 10341 12410 14060 15656 16480 16825 17560 18304 18953 18574 17875 17004 15287 13488 11780 10014 8519 6853 5471 3131 340 -2034 -4153 -5891 -7988 -10075 -11623 -12418 -13026 -13750 -14480 -14848 -14736 -14393 -13199 -12019 -11090 -9633 -8390 -7311 -6333 -5516 -4822 -4461 -3960 -3259 -3082 -2626 -2159 -1627 -1041 -621 -348 124 -39 -78 -284 -197 -419 -682 -1096 -1144 -902 -1011 -1312 -1317 -987 -925 -931 -1140 -738 -864 -436 -250 -383 -326 -153 -141 -340 -332 -346 -345 -131 -212 -195 -143 -367 -293 32 13 72 -83 327 226 390 478 473 477 811 812 838 873 819 494 505 799 891 1085 1002 1305 1294 1342 1226 1574 1559 1258 1565 1436 1481 1839 1670 2052 2165 1977 2022 2320 2015 1922 2119 2132 2016 2417 2219 2227 2252 2297 2654 2535 2492 2667 2583 2229 2401 2330 2327 2229 2630 2638 2477 2926 2761 3131 2995 3052 3020 2967 3012 3385 3608 3540 3934 3778 4171 4079 4397 4435 4403 4403 4389 3992 3826 3768 4181 4075 4444 4349 4633 4288 4632 4541 4917 4901 4866 4956 4822 5136 5237 5117 5489 5654 5576 6001 6167 6268 6019 6075 6330 6726 6730 6676 6370 6518 6501 6766 6990 6995 7005 7182 7494 7701 7595 7652 7648 7587 7955 7938 8031 7854 7820 7927 8209 8164 8539 8377 8402 8801 9008 9039 9087 8922 9240 8898 8926 9129 9130 9292 9096 9114 9095 9226 9294 9136 9547 9580 9537 9097 8850 9063 8702 8588 8753 8424 8761 8753 8387 8144 8192 8033 7666 7584 7416 7449 7286 7199 6854 6983 6626 6685 6114 5782 5681 5236 4880 4687 4460 3834 3692 3064 2730 2681 2413 1931 1715 1658 955 473 302 -346 -437 -683 -1120 -1140 -1152 -1390 -1606 -1879 -2011 -2663 -2873 -2763 -3076 -2788 -2771 -3101 -3337 -3298 -3474 -3956 -4022 -4450 -4458 -4281 -4734 -4550 -4919 -4961 -4787 -4804 -5141 -5203 -4849 -4916 -4548 -4532 -4865 -4771 -5171 -5008 -5216 -4808 -4762 -4882 -4570 -4904 -4831 -5147 -5209 -5246 -5038 -5070 -5111 -5468 -5490 -5117 -5214 -5066 -5427 -5411 -5018 -4999 -4993 -5006 -5089 -5090 -5232 -5170 -4862 -4849 -4911 -4713 -4622 -4619 -4627 -4652 -4720 -4894 -4538 -4648 -4515 -4914 -4934 -4553 -4664 -4308 -4238 -4252 -4348 -4642 -4623 -4295 -4306 -4635 -4530 -4902 -4870 -4524 -4666 -4331 -4633 -4338 -4276 -4430 -4412 -4313 -4495 -4595 -4660 -4378 -4117 -3923 -3907 -3949 -3806 -4109 -4138 -4012 -4048 -4185 -3717 -3552 -3473 -3487 -3643 -3283 -3620 -3858 -3761 -3772 -3804 -3748 -3510 -3283 -3405 -3381 -3313 -3692 -3521 -3501 -3482 -3604 -3356 -2996 -3007 -3348 -3252 -3461 -3552 -3501 -3264 -3340 -3009 -3186 -3126 -2998 -3376 -3207 -3242 -3386 -2951 -2767 -2920 -2724 -2771 -2789 -2723 -2739 -3084 -2995 -3042 -3099 -2884 -2469 -2679 -2508 -2906 -2759 -2744 -2773 -3104 -3175 -3343 -3333 -3156 -2730 -2835 -2489 -2677 -2469 -2856 -3097 -3010 -3122 -2884 -2652 -2400 -2007 -1791 -1855 -1805 -1655 -1571 -1178 -1407 -1249 -1650 -1439 -1550 -1213 -1346 -1100 -814 -395 -581 -825 -726 -737 -744 -721 -684 -459 -561 -366 61 -277 -225 -613 -591 -233 -138 -246 -474 -800 -472 -486 -889 -1079 -1102 -909 -1319 -911 -872 -529 -74 636 663 655 726 1049 741 765 1092 1036 703 773 770 802 450 371 -173 -650 -918 -1247 -1666 -1989 -1999 -2126 -2018 -2292 -2514 -2820 -2687 -2299 -2250 -2189 -2023 -2133 -2087 -1791 -1704 -1727 -2116 -1941 -1997 -2331 -2431 -2402 -1977 -2086 -1932 -2343 -2418 -2251 -2366 -1997 -1980 -2121 -1727 -1820 -1416 -1564 -1646 -1489 -1820 -1484 -1664 -1650 -1582 -1538 -1625 -1663 -1470 -1916 -1764 -2129 -2109 -2057 -1756 -2104 -1940 -1749 -1614 -1394 -1350 -1259 -1659 -1498 -1436 -1575 -1279 -1584 -1631 -1637 -1811 -1673 -1746 -1731 -1423 -1000 -721 -842 -237 -110 506 1220 2159 2686 2780 3291 4194 4744 5862 7341 8939 10721 12708 14907 16083 16792 17702 18732 19743 19928 20004 19039 17723 16255 14232 12646 11040 9803 8107 6155 3153 -59 -2028 -3747 -5691 -7662 -9699 -11151 -11915 -12660 -12998 -13547 -14145 -13793 -13208 -12248 -11301 -10012 -8589 -7781 -6755 -5524 -4930 -4207 -3304 -3123 -2530 -2341 -1882 -1565 -1387 -1118 -417 45 197 422 507 423 161 -65 5 -383 -183 -514 -410 -455 -390 -252 -380 -317 -258 -314 48 258 332 165 623 856 1100 1016 1008 754 407 308 256 153 431 784 854 694 887 423 228 309 181 446 878 739 766 701 1026 1067 1054 1127 1321 1201 1201 1272 1499 1671 2089 1767 1912 1848 1701 2117 2013 2181 2316 1684 1894 1759 2102 2119 2168 2170 2102 2093 2006 2283 2230 2252 2206 2431 2429 2303 2519 2940 3109 3192 2985 3098 2923 2702 3142 3158 3354 3244 3266 3044 2790 2748 2978 3295 3542 3863 3575 3471 3603 3508 3824 4380 4323 4265 4455 4364 4364 4082 4416 4464 4365 3988 4170 4154 4204 4180 4032 4293 4636 4492 4902 4755 4883 4483 4693 4557 4738 4741 5148 5384 5322 5718 5957 5884 5873 5854 5827 6017 6369 6714 6659 6677 6709 6764 7016 7242 7048 7098 7299 7640 8047 8005 7571 7359 7495 7517 7381 7611 7894 8311 8161 8144 8112 8153 8124 8476 8804 9012 9218 9193 9480 9118 9309 8864 8698 8685 8990 8874 8931 9222 9289 9114 9135 9242 8588 8334 8328 8395 8758 8585 8690 8447 8476 8291 7831 7956 7569 7716 7297 7274 7000 6972 6813 6592 6276 5886 5538 5412 5171 4752 4585 4276 4133 3564 3312 3238 3444 3245 3613 3257 2784 2425 1882 1018 791 304 -267 -130 -206 -218 -434 -885 -1301 -1456 -1877 -2061 -2043 -2575 -2487 -2547 -2741 -3388 -3445 -3007 -3110 -3005 -3045 -3071 -3026 -3046 -3374 -3705 -4114 -4011 -4020 -4182 -3763 -3747 -4015 -4465 -4290 -4325 -4875 -5081 -5475 -5415 -5452 -5557 -5926 -5580 -5372 -5040 -4814 -5146 -5465 -5609 -6011 -5912 -5642 -5201 -4991 -4767 -4787 -4809 -4912 -4712 -4266 -4265 -4489 -4740 -5167 -5053 -5089 -5157 -4600 -4511 -4500 -4714 -4487 -4607 -4937 -4910 -4972 -4803 -4806 -4954 -4984 -4853 -5037 -5097 -5213 -4801 -4526 -4472 -3752 -3712 -3514 -3526 -3850 -3754 -3782 -3488 -3418 -3040 -3071 -3067 -2987 -2958 -3012 -3386 -3442 -3604 -3620 -3627 -3490 -3723 -4179 -4392 -4454 -4276 -4312 -4624 -4452 -4390 -4427 -4354 -4190 -3895 -3317 -3399 -3426 -3419 -3411 -3220 -3237 -3398 -2981 -3106 -3120 -3090 -2775 -2766 -2779 -2709 -2938 -2706 -2708 -2792 -2954 -3197 -2788 -2808 -3144 -2974 -2995 -2990 -3246 -3552 -3844 -3484 -3265 -3412 -3022 -3147 -2774 -2726 -2912 -2539 -2906 -2802 -2785 -3127 -3050 -3395 -3009 -2778 -2814 -2691 -2669 -2581 -2655 -2680 -2893 -2758 -2783 -2817 -2563 -2249 -2432 -2186 -2428 -1973 -1791 -1919 -1801 -1886 -1731 -1843 -1457 -1866 -1811 -1421 -1480 -1919 -1764 -2118 -2056 -2057 -2119 -1977 -1950 -1874 -1441 -1203 -1091 -890 -730 -1151 -1293 -1335 -1074 -792 -624 -158 -137 -142 -158 -208 -230 -418 -730 -1293 -1370 -903 -892 -808 -673 -1092 -912 -746 -804 -413 -524 -324 -112 -69 -76 -59 364 590 222 -124 23 -349 -250 -150 -368 -499 -913 -1228 -1484 -1788 -2166 -1999 -2408 -2257 -2620 -2501 -2820 -2440 -2245 -2329 -1994 -2168 -1969 -2187 -2295 -2186 -1953 -2138 -2143 -2151 -2031 -2211 -2375 -2040 -2342 -2202 -2180 -2036 -2018 -2321 -2357 -2036 -2390 -2591 -2617 -2255 -2015 -2013 -2408 -2243 -2229 -2369 -2322 -2319 -1990 -2002 -2029 -2031 -2429 -2617 -2651 -2634 -2282 -2186 -2313 -1977 -1930 -1969 -2334 -2355 -1970 -1745 -1883 -1672 -1761 -2057 -1776 -1665 -1883 -1711 -1961 -2349 -1965 -1779 -1849 -1438 -1197 -928 -830 52 426 1157 2147 2670 2960 3488 4377 5124 5821 7155 9037 10795 12419 14413 15337 16125 17026 17841 18388 18969 18368 17361 15822 13983 12346 10385 9290 7996 6139 3828 1076 -1880 -3852 -5440 -6684 -8226 -9507 -10255 -10773 -11618 -12655 -13366 -13610 -13196 -12512 -11516 -10618 -9474 -8141 -7295 -6261 -5476 -4691 -4126 -3558 -3593 -3403 -3151 -2880 -2412 -1518 -1004 -837 -207 58 -98 122 -119 70 -280 -286 -325 -173 -627 -827 -681 -736 -739 -762 -692 -788 -543 -305 46 93 -101 -91 -9 160 163 337 296 336 -14 83 -306 -325 -298 -280 -299 4 -59 157 568 504 698 1059 1107 1034 862 423 415 811 715 1131 1111 1104 1118 1061 686 850 651 674 1032 1106 919 1352 1212 1541 1205 1312 1324 1202 1254 996 1074 1139 1297 1268 1459 1806 1869 1732 2100 2158 1999 1949 1977 2026 2369 2425 2347 1967 1954 2347 2592 2819 2691 2698 2872 2667 2202 2262 2485 2909 2751 3105 3196 3036 3398 3344 3183 3162 3039 3600 3562 3725 4100 4188 4191 3803 3901 3902 3736 3815 4192 3977 4192 4153 4165 3983 3986 4391 4503 4738 4825 5130 4830 4812 5170 5118 5739 5986 5812 5879 5846 5824 5815 5980 5981 5794 5978 5960 5829 6202 6129 6323 6334 6454 6456 6438 6052 6262 6485 6584 6903 7070 7111 7055 7275 7295 7128 7431 7311 7778 7977 7670 7795 7734 7775 7645 8002 8054 7952 7994 8038 7816 8126 8710 8962 8816 8564 8083 7896 7829 7905 7918 8051 7997 7974 7670 7739 7545 7082 7215 6882 7018 6778 6497 6175 5949 5630 5660 5497 5060 4781 4725 4476 3986 3948 3684 3208 3126 2641 2163 1469 1537 1340 1011 942 757 835 512 -21 -376 -811 -919 -1189 -1615 -1429 -1451 -1823 -2062 -2381 -2673 -2699 -3144 -3032 -3422 -3296 -3491 -3873 -3907 -3755 -3970 -4469 -4315 -4640 -4685 -4469 -4214 -4029 -4609 -4980 -5016 -5404 -5465 -5478 -5414 -5045 -4858 -4980 -4766 -5189 -5115 -5290 -5362 -5329 -5472 -5049 -4856 -4896 -4607 -4515 -4699 -4565 -4753 -4860 -5199 -5187 -5147 -4814 -4990 -4987 -4780 -4855 -5200 -5173 -5121 -4787 -4895 -4568 -4581 -4865 -4914 -4966 -4960 -4969 -4949 -4969 -4844 -4780 -4933 -4581 -4580 -4917 -4773 -5138 -5165 -4849 -4758 -4914 -4904 -4907 -4560 -4724 -4664 -4633 -4286 -4392 -4163 -3758 -3746 -4151 -4039 -4070 -4087 -4088 -4084 -4417 -4282 -4074 -4117 -4123 -4019 -4266 -4583 -4755 -4920 -4318 -4058 -4039 -4008 -4116 -3948 -3776 -3801 -3765 -3771 -3715 -3891 -3892 -3917 -3907 -3577 -3459 -3689 -3711 -3474 -3546 -3879 -3946 -3868 -3580 -3666 -3236 -3436 -3238 -3615 -3667 -3591 -3412 -3334 -3443 -3312 -3311 -3245 -3387 -2994 -3019 -3401 -3447 -3424 -3425 -3248 -3313 -3236 -3222 -3438 -3343 -3014 -3022 -3016 -2975 -2948 -2965 -3000 -3039 -3002 -2947 -3166 -3145 -3085 -3076 -3089 -3136 -2813 -2899 -2491 -2668 -2273 -2355 -2162 -1765 -1692 -1919 -1882 -1856 -1714 -2082 -2074 -1818 -1620 -1219 -1399 -1377 -1620 -1796 -1886 -1728 -1705 -1817 -1581 -1338 -1127 -1134 -920 -1110 -1074 -1082 -915 -1138 -997 -1347 -1360 -1200 -1401 -1222 -1421 -1469 -1238 -1005 -921 -1014 -1386 -1197 -1238 -1369 -996 -759 -641 -891 -795 -608 -310 270 212 222 307 56 -228 -611 -801 -1119 -1543 -1904 -2172 -2001 -2336 -2202 -2449 -2787 -3039 -3007 -2784 -2909 -2849 -2709 -3130 -3122 -2708 -2692 -2787 -2785 -2889 -2818 -2484 -2640 -2253 -2202 -2193 -2575 -2482 -2836 -2872 -2883 -2690 -2779 -3179 -2964 -2991 -2984 -3165 -2801 -2849 -2608 -2219 -2288 -2593 -2252 -2267 -2651 -2832 -2911 -2847 -2512 -2459 -2683 -2621 -2582 -2572 -2598 -2653 -2499 -2487 -2490 -2491 -2507 -2497 -2646 -2593 -2264 -2267 -2252 -2201 -2238 -2582 -2677 -2661 -2182 -2135 -1732 -1866 -1434 -1583 -1254 -964 -529 565 1307 2104 2938 3468 4173 4341 5067 6499 7970 9620 11864 13591 14565 15519 16681 17364 18148 18426 18291 17245 15581 14197 12372 10586 9046 7768 6461 4291 1508 -904 -2713 -4619 -6044 -8194 -9804 -10639 -11217 -11898 -12630 -13380 -13474 -13631 -13123 -12008 -10947 -9674 -8443 -7460 -6438 -5361 -4792 -4613 -4209 -3945 -3620 -3030 -2855 -2044 -1445 -991 -744 -794 -536 -315 29 -292 -221 -617 -493 -661 -1084 -899 -1017 -1404 -1559 -1491 -1796 -1623 -1356 -900 -741 -657 -839 -475 -552 -244 -603 -469 -471 -402 -518 -174 -155 -201 -237 -240 -247 -159 -331 90 -9 146 611 786 654 684 662 862 810 485 422 561 572 789 760 744 844 477 853 646 806 449 816 931 1251 1413 1474 1609 1177 1294 1365 1574 1453 1516 1507 1527 1467 1516 1532 1679 2137 2166 2070 1703 1838 1420 1409 1710 2155 1791 1761 1956 2026 2029 2378 2270 2653 2514 2914 2754 2713 2801 3137 3028 3319 3691 3601 3240 3280 3651 3495 3480 3546 3744 4195 4195 4153 3752 3955 3731 3801 3906 3732 4033 4309 4319 4286 4241 4297 4655 4585 4756 4834 4811 4830 5050 5304 5726 5553 5582 5894 5995 5856 5882 5825 5843 6167 6033 6455 6695 6921 7172 7244 7206 7069 7548 7724 7791 7729 7395 7693 7567 8015 8233 8122 8168 8555 8729 8716 8417 8528 8137 7927 7929 8275 8149 8416 8977 9080 8678 8415 8105 8208 8308 8526 8429 8814 8620 8668 8695 8648 8814 8438 8368 8527 8495 8141 8280 7907 7810 7993 7656 7614 7733 7347 7158 6909 6636 6526 5865 5545 5296 5382 5047 5085 5069 5152 4595 4450 3762 3604 2987 2901 2461 2586 2335 1917 1556 966 1054 728 816 532 -94 -572 -1042 -976 -1166 -1414 -1675 -2133 -2327 -2607 -2886 -2716 -2713 -2697 -2750 -2816 -2954 -3292 -3567 -3750 -4127 -4119 -3815 -3812 -4185 -4421 -4629 -4564 -4961 -4974 -4935 -4574 -4578 -4741 -5132 -4819 -4982 -4943 -4944 -4786 -5144 -5152 -5124 -5181 -5244 -5018 -5005 -5023 -4997 -5202 -5153 -5213 -5388 -5354 -5516 -5519 -5560 -5610 -5526 -5671 -5698 -5690 -5713 -5680 -5695 -5736 -5369 -5476 -5100 -5241 -5191 -5210 -5078 -5267 -5677 -5705 -5691 -5358 -5289 -5110 -5101 -5088 -5411 -5468 -5272 -5501 -5067 -5203 -4767 -4918 -4877 -4871 -4521 -4646 -4339 -4245 -4228 -4470 -4305 -4684 -4691 -4613 -4263 -4433 -4432 -4382 -4404 -4412 -4453 -4229 -4325 -4638 -4661 -4697 -4682 -4345 -4270 -4474 -4430 -4389 -4423 -4421 -4418 -4367 -3988 -4179 -4116 -3832 -4106 -4113 -4146 -4115 -3821 -3967 -3570 -3492 -3669 -3595 -3243 -3215 -3278 -3292 -3602 -3462 -3502 -3670 -3592 -3309 -3591 -3293 -3313 -3607 -3604 -3324 -3315 -3293 -3252 -3211 -3367 -3195 -2815 -2775 -2796 -3148 -2952 -2980 -3032 -3386 -3427 -3398 -3060 -3007 -3011 -2976 -2960 -3177 -2972 -3353 -3311 -3709 -3539 -3867 -3844 -3478 -3233 -3028 -3192 -2966 -2960 -2804 -2856 -2633 -2561 -2262 -2204 -2364 -2131 -1816 -1550 -1163 -1246 -1606 -1636 -1643 -1637 -1561 -1192 -1189 -1403 -1185 -1235 -1247 -1229 -1263 -1607 -1586 -1184 -1316 -918 -1119 -1108 -702 -722 -1116 -1183 -1617 -1232 -923 -1036 -1039 -987 -1369 -1260 -1582 -1636 -1202 -967 -732 -884 -873 -811 -640 -227 -369 109 331 634 491 826 656 716 670 810 396 605 142 -321 -809 -977 -1601 -1497 -1802 -1693 -2047 -2448 -2784 -2759 -2832 -2459 -2671 -2620 -2640 -2633 -2550 -2775 -2956 -3200 -2693 -2623 -2331 -1951 -2121 -2143 -2032 -2189 -2260 -2293 -2612 -2449 -2521 -2546 -2511 -2467 -2661 -2624 -2618 -2282 -2177 -2225 -2303 -2612 -2302 -2290 -2577 -2586 -2571 -2279 -2285 -2650 -2464 -2831 -2891 -2715 -2726 -2731 -2700 -2689 -2699 -2705 -2717 -2775 -2693 -2558 -2502 -2917 -3082 -3127 -2755 -2557 -2591 -2241 -2246 -2248 -2302 -2290 -2368 -2130 -1816 -1398 -651 -260 455 1244 1948 2480 2946 3456 4401 5481 6593 8451 10308 12016 13838 14894 15637 16441 17498 18154 18788 18479 17477 15772 14207 12020 10339 8801 7465 5881 4394 1854 -1117 -3148 -4944 -6711 -8795 -10434 -11731 -12540 -12998 -13941 -14214 -14644 -14431 -13887 -12727 -11858 -10408 -9510 -8078 -7222 -6245 -5499 -4984 -4244 -3830 -3700 -3049 -2556 -2319 -1887 -1199 -750 -637 -140 -283 -345 -517 -460 -891 -1087 -1316 -1184 -1559 -1663 -1525 -1892 -1482 -1174 -1088 -823 -622 -251 -204 -545 -441 -631 -175 -285 -304 -172 -411 -868 -705 -698 -825 -424 -601 -596 -635 -624 -218 -340 -257 56 97 -101 258 309 129 136 357 352 347 156 590 465 825 879 707 1044 1058 752 749 742 1057 1146 976 1323 1263 1623 1616 1547 1279 1199 1166 1268 1607 1515 1873 1895 1706 1765 2074 2125 1931 2032 2370 2370 2409 2219 2274 2685 2455 2445 2513 2817 2856 2909 2690 2715 2902 2882 2702 3085 2984 3043 3057 3063 3329 3371 3429 3248 3275 3283 3292 3645 3549 3731 4132 4212 4005 4001 4019 4384 4427 4269 4265 4255 4225 4622 4973 5189 5001 5226 5210 5242 5058 5418 5479 5290 5335 5364 5691 5561 6007 5850 6249 6137 6519 6396 6763 6585 6622 6941 7012 7196 7127 7516 7378 7733 7418 7300 7523 7463 7150 7163 7505 7605 8243 8081 8270 7912 8039 7611 7558 7978 8231 8482 8722 8814 8624 9017 9031 9015 8664 8658 9031 8864 8851 8934 9304 9141 9201 9474 9098 9242 8897 9002 8686 8611 8589 8643 8611 8705 8516 8087 7833 7619 7420 7442 6889 6591 6682 6343 6080 5847 5949 5365 5227 4866 4300 4002 3962 3670 3422 3127 2831 2302 2333 1713 1238 1107 501 514 150 310 -63 -292 -629 -717 -1326 -1415 -1905 -1790 -2167 -2359 -2278 -2452 -2871 -2782 -2976 -3205 -3685 -3736 -4058 -4692 -4739 -4852 -4837 -4928 -4484 -4351 -4296 -4636 -4556 -4984 -4746 -4909 -4924 -4798 -5149 -5221 -5229 -5153 -4820 -4845 -5203 -5073 -5451 -5343 -5727 -5520 -5520 -5610 -5973 -5874 -6025 -6064 -5872 -5612 -5722 -5684 -5375 -5365 -5640 -5649 -5662 -5725 -5555 -5709 -5372 -5702 -5692 -5265 -5079 -5034 -5098 -5119 -5442 -5491 -5444 -5452 -5387 -5078 -5035 -5046 -5049 -5096 -5043 -5197 -4772 -4794 -4829 -5160 -4994 -5248 -5175 -5150 -4840 -4763 -4961 -4580 -4488 -4644 -4347 -4306 -4448 -3992 -4001 -4361 -4480 -4248 -4399 -4087 -4427 -4061 -4218 -4118 -3803 -3761 -3741 -3741 -3777 -3743 -3783 -3827 -4141 -4157 -3798 -3948 -3901 -3876 -3881 -3557 -3492 -3552 -3967 -4103 -3827 -3757 -3729 -3935 -3937 -3887 -3546 -3523 -3473 -3694 -3530 -3572 -3493 -3650 -3261 -3430 -3351 -3056 -3391 -3418 -3205 -3591 -3537 -3934 -3919 -3847 -3530 -3552 -3546 -3502 -3705 -3461 -3690 -3651 -3667 -3507 -3537 -3859 -3961 -3781 -4176 -4159 -3801 -3743 -3861 -3595 -3056 -3184 -3164 -2983 -3050 -3413 -3418 -3374 -2973 -2778 -2689 -2924 -2526 -2633 -2243 -2425 -2219 -2606 -2275 -2390 -2318 -1966 -2072 -1853 -1522 -1500 -1825 -1860 -1760 -2164 -2082 -1843 -1656 -1154 -1010 -1118 -1084 -909 -1281 -1015 -1283 -933 -1148 -1129 -915 -1106 -1053 -664 -870 -485 -465 -396 -473 -774 -774 -447 -822 -701 -1067 -1039 -730 -873 -492 -497 -485 -446 -393 -516 -321 117 346 248 529 414 883 1035 1025 682 671 662 816 385 186 -114 -516 -761 -1192 -1486 -1739 -2158 -2023 -2228 -2552 -2756 -2799 -2691 -2879 -2543 -2489 -2687 -2659 -2610 -2276 -2243 -2297 -2577 -2569 -2292 -2205 -2427 -2202 -2230 -2218 -2191 -2181 -2259 -2648 -2512 -2523 -2839 -2911 -2868 -2845 -2864 -2671 -2349 -1929 -2131 -1940 -1961 -2170 -2078 -1730 -1691 -1761 -2171 -2318 -2428 -2415 -2002 -2160 -2131 -2155 -2119 -2126 -2100 -1939 -2044 -2345 -2426 -2623 -2435 -2666 -2618 -2585 -2574 -2282 -2405 -2042 -2135 -1740 -1708 -1770 -2107 -1974 -1953 -1792 -1545 -854 112 829 1248 1922 2520 2975 3496 4149 4601 5911 7169 8389 10428 12830 14652 15987 16899 17784 18665 19749 19704 19164 18073 16795 15741 13987 12230 10445 9030 6898 4958 2146 -823 -2927 -4642 -6106 -8462 -9957 -11392 -11919 -12543 -13828 -14708 -14839 -14867 -13776 -12485 -11327 -10094 -8704 -7625 -6655 -5958 -4824 -4057 -3669 -3169 -2827 -2266 -2151 -1814 -1567 -1014 -694 -560 -299 53 32 -311 -168 -231 -401 -718 -1305 -1415 -1682 -1728 -1835 -1597 -1380 -1313 -1020 -940 -1071 -657 -432 -571 -368 -110 -111 -293 -377 -189 -544 -599 -548 -235 -279 324 546 585 623 441 407 598 543 517 248 610 411 427 456 463 793 792 779 824 674 741 1105 973 1388 1358 921 646 465 780 897 1590 1854 1909 1773 1755 1797 1544 1333 979 1184 1495 1471 1427 1482 1887 1736 2056 1762 2092 2133 1983 2009 2385 2256 2608 2480 2605 2562 2650 2502 2471 2465 2550 2781 3115 3158 3136 3120 3085 3149 3111 3087 3124 2951 2984 2979 3037 3402 3209 3274 3514 3928 3749 3742 3756 4137 4043 4425 4261 4313 4498 4964 4848 4840 4988 4602 4914 4866 4908 5139 5024 5055 5388 5255 5339 5477 5435 5296 5345 5354 5526 5821 6248 6226 6126 6289 6339 6370 6552 6826 7179 7236 7278 7058 7084 7085 7490 7457 7483 7337 7577 7857 8314 8292 8232 8246 8120 8087 7894 8020 8018 8199 8131 8474 8347 8818 9084 8880 8859 8848 8683 8433 8511 8566 8764 8692 9061 9075 8941 9332 9245 9059 8588 8556 8136 8172 8131 7905 7972 7784 7391 7354 7336 7131 7171 6958 6389 6188 5516 5277 5449 5433 5014 4922 4459 3834 3562 3612 3243 3213 3390 3121 2504 2350 1688 1271 915 1038 497 141 -125 -287 -197 -500 -1108 -1343 -1618 -1708 -1938 -2345 -2589 -2860 -2704 -3087 -3432 -3533 -3955 -4115 -4171 -4000 -4048 -4366 -4342 -4587 -4779 -5200 -5184 -4769 -4903 -4956 -5170 -5115 -5381 -5161 -4877 -4557 -4914 -4789 -4838 -4990 -4935 -4951 -4798 -4853 -4824 -5129 -5007 -5391 -5477 -5301 -5284 -5256 -5504 -5468 -5493 -5303 -5344 -5527 -5968 -5619 -5368 -5406 -5062 -5114 -5467 -5473 -5436 -5116 -5008 -4819 -4815 -4864 -5215 -5176 -4860 -4914 -4882 -4537 -4535 -4596 -4592 -4319 -4201 -3762 -3818 -4023 -4092 -4270 -4697 -4527 -4508 -4471 -4044 -4477 -4283 -4328 -4625 -4675 -4621 -4689 -4690 -4707 -4484 -4698 -4253 -4342 -4627 -4465 -4193 -4174 -3977 -4444 -4246 -4376 -4097 -3757 -3790 -4179 -4026 -4072 -3978 -4097 -3910 -3821 -4203 -4358 -4364 -4363 -4027 -4141 -3909 -3710 -3622 -3593 -3474 -3560 -3926 -3922 -3719 -3753 -3828 -3768 -3735 -3947 -3477 -3596 -3216 -3262 -3688 -3472 -3517 -3524 -3465 -3275 -3423 -3385 -3236 -3672 -3499 -3301 -3072 -3140 -2800 -3155 -3069 -3205 -3406 -3037 -3346 -3425 -3372 -2994 -3140 -3084 -2691 -2855 -2880 -2735 -2813 -3087 -3134 -3127 -2948 -2992 -3026 -2970 -3181 -3145 -2764 -2880 -2487 -2446 -2683 -2688 -2290 -2206 -2034 -1955 -2149 -1708 -1536 -1582 -1215 -1193 -1180 -1203 -1556 -1795 -2105 -1976 -1946 -2100 -1901 -1261 -1397 -1368 -1192 -1257 -1362 -1057 -802 -815 -793 -549 -187 -152 -558 -596 -523 -168 86 -91 -75 76 -522 -454 -836 -718 -764 -1027 -874 -506 -570 -365 61 271 227 455 689 915 1330 1017 1095 666 806 854 796 175 70 -243 -456 -751 -1286 -1200 -1582 -1683 -1990 -2232 -2656 -2677 -2680 -2300 -2009 -2064 -1762 -2087 -1922 -1951 -1790 -1853 -1832 -1693 -1681 -1676 -1742 -1873 -1643 -1566 -1440 -1907 -1752 -1690 -1787 -2369 -2657 -2897 -2788 -2920 -2681 -2243 -2024 -1720 -1498 -1852 -2050 -1979 -2368 -2361 -2319 -2023 -2120 -2058 -2154 -2334 -2371 -2039 -2085 -1911 -1906 -1694 -2065 -1921 -2068 -1721 -2140 -1997 -1935 -2050 -1730 -1885 -1492 -1651 -1440 -1488 -1512 -1531 -1855 -1529 -1634 -1192 -1193 -1556 -1171 -1091 -628 -119 783 1167 2052 2267 3076 3645 4135 4891 5922 7251 8661 10476 12565 13991 15292 16445 17281 18729 19537 19619 19383 18765 17424 15234 13351 11520 10081 9087 7799 5718 2513 -134 -2190 -4146 -5579 -7966 -9638 -11117 -11412 -11933 -12726 -13648 -13736 -13940 -13187 -12571 -11211 -10094 -8379 -7316 -6706 -5613 -5184 -4693 -4029 -3953 -3621 -3116 -2518 -2210 -2088 -1650 -1140 -389 -282 -91 309 205 567 521 202 143 -51 -287 -232 -565 -164 -98 290 374 536 436 710 1056 892 436 416 784 704 736 796 581 382 127 -369 -150 59 524 773 856 894 659 876 815 446 498 1024 963 1005 1313 1546 1796 1807 1543 1305 1104 1071 975 1396 1372 1007 980 1139 909 1389 1653 1651 1181 1312 1260 1864 1701 1907 1796 1429 1655 1460 1505 1475 1443 1483 1827 1764 2326 2646 2479 2467 2582 2299 2611 2592 2628 2493 2493 2492 2684 2674 2543 3124 3454 3613 3630 3297 3329 3149 2812 2807 2969 3219 3694 3824 4183 4175 4103 3746 3918 3527 3465 3480 3842 3717 3749 4145 4037 4070 4406 4432 4360 4004 3979 4398 4246 4280 4661 4525 4889 4976 4984 4855 5078 5025 5105 5463 5271 5326 5680 5597 5842 6435 6697 6729 6333 6492 6461 6303 6745 6554 6940 6798 6858 6906 7135 7458 7428 7543 7363 7715 7701 7692 7762 7651 7828 8295 8115 8156 8088 8075 8522 8447 8418 8507 8108 8262 7878 8233 8468 8560 8326 8567 8152 8248 8230 8211 8202 8259 8217 8055 8062 7974 7995 7887 7934 7887 7780 7073 6846 7006 6815 7239 7483 7458 7021 6459 5774 5571 5918 5949 5733 5036 4665 3755 3671 3319 3422 3364 3181 2901 2592 1996 1694 1659 1305 743 442 133 -26 90 59 -349 -625 -810 -738 -985 -1191 -1428 -1760 -2021 -2295 -2558 -2796 -2801 -2779 -3007 -3259 -3500 -3797 -4045 -4047 -4114 -3882 -3924 -4180 -4456 -4922 -5158 -4792 -4516 -4633 -4625 -4660 -4698 -4595 -4894 -4568 -4725 -4707 -4882 -4774 -4769 -4926 -4498 -4319 -4293 -4611 -4317 -4661 -4525 -4914 -4960 -4782 -4767 -4753 -4944 -4580 -4716 -4619 -4301 -4727 -4904 -4896 -4886 -4604 -4521 -4877 -4963 -4992 -4877 -4701 -4269 -4078 -4064 -4061 -4389 -4646 -4905 -4753 -4931 -4645 -4386 -4176 -4155 -4000 -4144 -3727 -3858 -3959 -4124 -4215 -4091 -4086 -3996 -4160 -4114 -3806 -3778 -3800 -4113 -3777 -3839 -4062 -4044 -4174 -3781 -3536 -3638 -3633 -3507 -3935 -3925 -3946 -3960 -3787 -3744 -3672 -3374 -3186 -3028 -3441 -3317 -3237 -3204 -3262 -3680 -3464 -3513 -3653 -3268 -2992 -3092 -3153 -2990 -2990 -3399 -3219 -3609 -3593 -3297 -3592 -3595 -3365 -2981 -3009 -3359 -3345 -3373 -3229 -3231 -3440 -3422 -3393 -2975 -2801 -2923 -2861 -2840 -2842 -2557 -2821 -2690 -2764 -3126 -3190 -3337 -3006 -2759 -2840 -2675 -2570 -2599 -2687 -2442 -2437 -2440 -2495 -2897 -2772 -2767 -2735 -2880 -2642 -2398 -2146 -1711 -1852 -1885 -1862 -1649 -1183 -1335 -1200 -1603 -1597 -1541 -1599 -1625 -1573 -1233 -1008 -706 -804 -757 -1370 -1650 -1505 -1465 -1540 -1403 -1355 -930 -728 -852 -689 -1101 -1137 -1024 -1288 -1003 -961 -1118 -1026 -892 -680 -723 -1047 -1316 -1648 -1428 -1548 -1003 -672 -451 -579 -210 -329 93 332 605 831 510 591 161 46 -162 -182 -580 -867 -973 -1556 -1715 -1958 -2009 -2046 -2332 -2183 -2599 -2844 -3102 -3021 -3189 -2689 -2505 -2449 -2574 -2395 -1986 -2129 -1931 -2365 -2214 -2281 -2213 -2311 -2018 -1979 -2352 -2606 -2469 -2482 -2507 -2518 -2455 -2601 -2278 -2561 -2248 -2387 -2308 -2043 -2400 -2254 -2297 -2271 -2197 -2238 -2647 -2551 -2936 -2923 -2855 -2875 -2453 -2579 -2598 -2570 -2258 -2274 -2418 -1984 -2022 -2323 -2009 -2048 -2187 -2282 -2225 -2360 -2423 -2620 -2465 -2817 -2924 -2782 -2739 -2891 -2613 -2017 -1907 -1550 -1111 -629 -36 648 1588 1932 2550 3317 4384 5105 6441 7385 9071 10800 12282 13788 14974 15684 16318 17445 17815 18213 17685 16317 14763 12970 11329 9443 8509 7153 5594 3065 292 -2370 -3766 -5503 -6807 -8427 -10034 -10800 -10976 -11489 -12643 -13326 -13268 -13174 -12161 -11611 -10179 -9099 -8280 -7253 -6021 -5426 -4572 -4354 -3868 -3279 -3061 -3173 -2737 -2588 -1932 -1468 -959 -808 -232 43 -19 -15 -93 11 -585 -830 -1056 -1114 -1144 -1392 -1549 -1599 -1248 -997 -734 -858 -415 -551 -171 -358 -310 -308 62 -15 -84 117 106 116 80 65 38 84 -13 184 232 543 215 326 -72 103 -113 -46 131 198 545 541 205 212 523 569 597 599 578 615 457 769 423 493 704 1150 986 1303 1321 1398 1374 1317 1015 957 987 973 959 1337 1199 1614 1478 1519 1466 1273 1161 1382 1350 1365 1637 1704 2078 2098 1707 1870 1903 2053 2156 1952 2395 2267 2588 2296 2437 2521 2839 2875 2540 2667 2443 2854 2776 3144 3162 3105 2756 2862 2881 2914 2740 3129 2964 3380 3442 3344 3056 3261 3508 3930 3816 4096 4129 4155 4011 4048 4210 4150 4047 4482 5164 5098 5408 5074 5050 5414 5419 5035 5009 5111 5483 5369 5991 6064 6280 6716 6720 6385 6369 6770 6611 6989 6864 7225 7273 7102 7484 7328 7405 7700 7380 7387 7786 7605 7643 7562 7704 7348 7394 7731 7552 7638 8010 7822 7932 8301 8124 8134 8082 8150 8504 8498 8515 8173 8126 8158 8184 8518 8189 8071 8285 8300 7855 7740 7474 7118 7437 7475 7043 6967 6336 6087 6157 5931 5348 5032 4862 4923 4659 4464 4063 3763 3659 3062 2701 2663 2407 1928 1722 1458 1365 1034 600 -63 -275 -175 -567 -781 -1102 -1203 -1678 -2014 -2632 -2866 -2691 -2793 -3169 -3069 -3314 -3500 -3513 -3708 -3514 -3747 -4040 -4453 -4423 -4232 -4310 -4632 -4649 -4625 -4703 -4603 -4962 -4588 -4586 -4817 -5197 -5207 -5065 -5084 -5032 -5037 -5009 -5037 -5429 -5463 -5297 -5635 -5325 -5350 -5749 -5592 -5548 -5552 -5617 -5516 -5708 -5693 -5644 -5365 -5727 -5600 -5905 -5539 -5638 -5321 -5300 -5463 -5432 -5104 -5223 -5203 -5229 -5010 -5397 -5494 -5486 -5385 -5050 -5004 -5033 -5029 -5092 -5110 -5103 -5379 -5117 -5107 -5080 -5116 -5400 -5035 -4824 -4765 -4828 -4860 -5126 -4815 -4590 -4482 -4526 -4603 -4961 -4982 -4983 -4902 -4572 -4658 -4225 -4471 -4346 -4513 -4490 -4683 -4328 -4252 -4436 -4393 -4474 -4232 -4460 -4414 -4387 -3998 -4160 -4213 -4220 -4188 -4183 -4207 -3981 -4216 -4141 -4149 -4125 -4110 -3838 -3781 -3776 -3968 -4102 -3972 -4040 -4062 -4052 -4212 -3827 -3826 -4139 -4108 -3806 -3778 -3936 -3921 -3718 -3732 -3922 -3507 -3641 -3693 -3479 -3682 -3611 -3618 -3585 -3214 -3242 -3669 -3856 -3577 -3704 -3621 -3642 -3667 -3473 -3857 -3896 -3575 -3661 -3245 -3371 -3365 -3367 -2997 -3192 -2979 -3018 -2948 -3189 -3021 -2993 -3105 -3101 -3179 -2961 -2952 -2797 -2899 -2513 -2636 -2201 -2322 -2130 -1707 -1875 -1907 -1766 -2100 -2116 -2089 -1912 -1865 -2083 -2154 -1782 -1853 -1632 -1153 -1349 -1222 -1653 -1474 -1439 -1264 -1312 -1068 -731 -863 -824 -689 -1125 -1297 -1148 -741 -751 -1070 -1312 -1573 -1525 -1514 -1842 -1897 -1799 -1604 -1391 -1115 -843 -640 -203 -359 49 -114 350 567 625 635 180 34 -523 -495 -734 -1003 -1611 -1693 -1940 -2369 -2259 -2658 -2541 -2692 -2769 -2767 -2693 -2932 -2795 -3080 -2741 -2707 -2763 -2809 -2720 -2514 -2580 -2231 -2400 -2350 -2254 -2470 -2850 -2905 -2553 -2602 -2587 -2529 -2721 -3074 -3178 -3126 -2870 -2597 -2405 -2337 -2182 -2268 -2505 -2703 -2785 -2715 -2855 -2549 -2546 -2826 -2847 -2529 -2509 -2555 -2910 -2758 -2756 -2925 -2911 -2903 -2551 -2515 -2548 -2870 -2929 -2770 -2773 -2709 -2915 -2864 -2494 -2662 -2441 -2535 -2851 -2928 -2911 -2513 -2585 -2319 -1712 -1264 -836 90 879 1632 1999 2736 3490 4416 5222 6082 7683 9285 10964 13125 14234 15202 15555 16309 17426 17957 17946 17475 16027 14471 12876 10674 9251 8022 6542 5163 2820 42 -2376 -3736 -5289 -6891 -9031 -10163 -11388 -11682 -12577 -13429 -13931 -13799 -13657 -12684 -11697 -10854 -9393 -8478 -7473 -6378 -5610 -5185 -4679 -3992 -3914 -3627 -3178 -2563 -2087 -1606 -935 -645 -788 -816 -479 -585 -242 -611 -847 -1135 -1342 -1187 -1235 -1545 -1596 -1274 -1186 -1374 -997 -1029 -868 -776 -450 -485 -491 -792 -778 -783 -790 -799 -445 -386 -491 -503 -478 -817 -787 -458 -578 -231 -363 12 111 -14 129 228 252 247 246 162 346 367 151 358 317 370 157 521 426 774 873 672 792 407 238 539 422 895 1089 998 1000 951 944 962 1296 1294 1170 1581 1522 1684 2091 2067 1746 1757 2060 2058 2083 2060 2095 2163 2317 2259 2582 2640 2592 2239 2351 2379 2415 2563 2677 2929 3127 3014 3045 3351 3070 3329 3418 3420 3414 3245 3710 3876 3752 3962 3719 3963 3818 4217 4083 4228 4295 4334 4280 4313 4619 4735 4549 4913 4932 4790 4833 5209 5061 5421 5483 5281 5697 5607 5586 5694 5686 5902 5850 6233 6062 6034 6197 5878 5863 5882 5862 6041 6491 6664 6545 6627 6863 7287 7102 7088 7282 7153 7359 7750 7636 7960 8063 7909 8253 8283 8285 7924 7870 7886 7897 7908 8218 8243 8198 8207 8199 8094 8468 8445 8634 8980 8661 8350 8133 8270 8154 8567 8409 8826 8981 9034 8965 8784 8529 8288 7827 7943 7752 7765 7692 7474 7169 6933 6752 6659 6329 6134 6183 5526 5410 4791 4544 4454 4170 3840 3232 3135 2504 2383 2077 1709 1527 1216 869 330 -344 -554 -465 -716 -1017 -1542 -1831 -2164 -2400 -2619 -2534 -2737 -3175 -3010 -3348 -3286 -3642 -3565 -3943 -4128 -4037 -4446 -4637 -4531 -4896 -4965 -4798 -5185 -5389 -5494 -5689 -5704 -5717 -5644 -5698 -5743 -5601 -5897 -5599 -5558 -5550 -5534 -5543 -5538 -5530 -5740 -5713 -5665 -5637 -5742 -5926 -5770 -5773 -5948 -5620 -5594 -5899 -6011 -5844 -6174 -6231 -6259 -6215 -5871 -5904 -5731 -5648 -5722 -5913 -5938 -5935 -5543 -5657 -5310 -5503 -5473 -5418 -5383 -5111 -5042 -5203 -5176 -5143 -4815 -4843 -5247 -5432 -5489 -5476 -5444 -5047 -5232 -5034 -5097 -5098 -5402 -5252 -5352 -5477 -5044 -5169 -5193 -4997 -5000 -4998 -5239 -5182 -4860 -4748 -4933 -4865 -4571 -4529 -4505 -4561 -4950 -4800 -4981 -4600 -4719 -4690 -4498 -4585 -4880 -4571 -4484 -4663 -4648 -4621 -4663 -4658 -4310 -4261 -4233 -4476 -4302 -4324 -4319 -4278 -4479 -4075 -4080 -4092 -4080 -4080 -4420 -4434 -4377 -4184 -3802 -3839 -4141 -4162 -4141 -4103 -3838 -3828 -3824 -4097 -4097 -4128 -4114 -3765 -3738 -3733 -3957 -3930 -3891 -3894 -3878 -3869 -3886 -3863 -3881 -3913 -3908 -3945 -3730 -3739 -3949 -3843 -3659 -3225 -3376 -3351 -3375 -3223 -3291 -3590 -3476 -3875 -3943 -3729 -3480 -3058 -2941 -2438 -2594 -2603 -2586 -2238 -2339 -2006 -1980 -2158 -1784 -1913 -1836 -1889 -1721 -2056 -1729 -1723 -1919 -1833 -1795 -1650 -1196 -1301 -1016 -1336 -1344 -1393 -1399 -1184 -1166 -1385 -1368 -935 -756 -700 -692 -665 -846 -647 -1048 -991 -1158 -1213 -1278 -1266 -1240 -1404 -1329 -1138 -852 -249 118 360 179 192 536 394 458 490 616 163 -29 -320 -231 -561 -511 -974 -1451 -2068 -2365 -2263 -2674 -2864 -3115 -3006 -3029 -2975 -2988 -3194 -3096 -2792 -2796 -2801 -2748 -2918 -2883 -2821 -2500 -2446 -2651 -2609 -2287 -2262 -2571 -2649 -2491 -2834 -2940 -2717 -2919 -2827 -2817 -2834 -2456 -2620 -2662 -2498 -2824 -2830 -2537 -2465 -2613 -2576 -2591 -2635 -2639 -2623 -2677 -2436 -2449 -2521 -2557 -2495 -2634 -2603 -2644 -2658 -2479 -2904 -2772 -2801 -2698 -2855 -2837 -2871 -2852 -2554 -2529 -2532 -2844 -2929 -2718 -2911 -2478 -2195 -2107 -1804 -1228 -1100 -605 291 1037 1843 2290 3146 3664 4212 4736 5826 7307 9166 11232 13189 14939 15591 16259 17099 18118 18840 19075 18948 17593 16472 14503 12524 10693 9296 7599 6157 3967 907 -1254 -3350 -4806 -6842 -9299 -11111 -12405 -12978 -13944 -14499 -14810 -14743 -14455 -13629 -12210 -11350 -10247 -8892 -7861 -7260 -6119 -5088 -4446 -3468 -3373 -2727 -2597 -2086 -1618 -1127 -431 -136 -102 298 354 324 317 81 -187 -462 -741 -1117 -1096 -1078 -1048 -1084 -1039 -755 -657 -863 -795 -617 -227 -299 89 -102 -6 293 259 -93 -287 -170 -169 -384 -377 -286 17 90 -58 301 363 156 239 537 613 448 460 445 387 602 544 637 452 431 402 622 627 454 842 662 1062 918 1283 1313 1002 952 919 963 1001 1322 1406 1265 1656 1454 1621 1249 1387 1185 1551 1567 1566 1538 1618 1838 1764 1924 1983 2171 2156 2158 2025 2225 2651 2609 2300 2595 2435 2855 2791 3371 3280 3270 3450 3160 2938 2939 2756 3124 3068 3319 3631 3593 3320 3630 3547 3760 4083 4241 4297 4646 4517 4596 4519 4571 4499 4717 4584 4887 5123 5409 5645 5727 5635 5657 5638 5638 5704 5987 6205 6016 6045 6267 6017 6117 6292 6669 6736 6708 6564 6797 7255 7062 7140 7487 7340 7389 7551 7156 7098 7460 7694 7615 7989 8239 8486 8392 8725 8768 8732 8408 8728 8579 8611 8741 8550 8350 8678 8934 8919 8861 8936 8938 9258 9343 9099 9474 9154 9220 8863 8926 9295 9096 9474 9573 9517 9115 9093 9336 9241 9084 8675 8602 8707 8365 8474 8309 7900 7987 7788 7528 7063 6846 6583 6459 6215 5914 5655 5466 5213 4984 4569 4618 4061 3745 3576 3706 3068 2528 2418 2125 1827 1244 1327 756 399 283 -274 -531 -779 -879 -1032 -1176 -1832 -1769 -2396 -2678 -2674 -2462 -2880 -2763 -3169 -3379 -3259 -3686 -3858 -3858 -3543 -3543 -3576 -3947 -4133 -4257 -4916 -4855 -4830 -4930 -4577 -4591 -4962 -4809 -5246 -5021 -5067 -5382 -5434 -5464 -5345 -5714 -5505 -5737 -5686 -5361 -5704 -5733 -5635 -5357 -5298 -5409 -5084 -5115 -5119 -5096 -5413 -5413 -5076 -5184 -4860 -5035 -5463 -5455 -5245 -5143 -4815 -4927 -4565 -4496 -4708 -4727 -4520 -4963 -4861 -5185 -4838 -4939 -4577 -4502 -4674 -4623 -4318 -4474 -4444 -4628 -4923 -4805 -4827 -4804 -5139 -4991 -4594 -4880 -4528 -4491 -4494 -4284 -3996 -3736 -3895 -3946 -4164 -4181 -4196 -4049 -4068 -4033 -4153 -3758 -3730 -3891 -3860 -3943 -3719 -3944 -3759 -4164 -3984 -4181 -3792 -3929 -3886 -3911 -3833 -4138 -3759 -3878 -3855 -3887 -3866 -3711 -3268 -3604 -3559 -3877 -3847 -3918 -3878 -3852 -3582 -3543 -3523 -3561 -3530 -3534 -3508 -3601 -3442 -2997 -2979 -3225 -3490 -3903 -3549 -3637 -3320 -3313 -3287 -3608 -3588 -3213 -3036 -3173 -3123 -3197 -3437 -3273 -3353 -3083 -2855 -2943 -3136 -2952 -2815 -2875 -2526 -2853 -2925 -2803 -3063 -3304 -3590 -3305 -3368 -3078 -2437 -2211 -2399 -2401 -2374 -2165 -1825 -1591 -1259 -1403 -1372 -1000 -1092 -835 -434 -390 -615 -484 -653 -665 -876 -646 -757 -1075 -1026 -696 -885 -873 -868 -769 -453 -429 -421 -616 -224 -534 -798 -763 -1036 -894 -777 -506 -878 -736 -1033 -901 -917 -738 -790 -418 -386 -240 31 -12 196 438 680 1103 1133 766 646 479 537 297 96 -380 -803 -981 -1560 -1516 -1900 -1703 -2064 -1990 -2430 -2610 -2642 -2569 -2183 -2305 -2020 -2322 -2351 -2354 -1996 -1936 -1721 -1486 -1275 -1360 -1407 -1427 -2136 -2243 -2619 -2230 -2194 -2426 -2251 -2276 -2316 -2101 -2095 -2074 -1777 -2149 -1933 -1963 -2008 -2333 -2012 -1740 -1829 -1847 -1833 -1826 -1850 -1489 -1649 -1634 -1475 -1836 -1743 -2051 -1783 -1525 -1569 -1614 -1499 -1904 -1669 -1863 -1467 -1424 -1412 -1587 -1223 -1661 -1914 -1749 -1696 -1689 -1889 -1489 -1196 -1115 -871 -399 -159 -109 433 1197 2004 2915 3311 4172 4705 5480 6299 7969 9153 10936 12955 14924 16233 17193 17849 19066 19812 19865 19612 18984 17773 16135 14041 12317 10470 9518 8043 5575 2699 322 -1888 -3265 -5099 -7402 -9596 -10858 -11777 -12602 -12959 -13637 -13853 -13469 -13100 -12020 -10989 -10036 -8684 -7989 -6859 -6161 -4778 -4116 -3247 -2794 -2512 -2579 -2432 -1950 -1488 -1079 -189 -32 524 404 793 815 493 225 76 -391 -670 -1057 -1082 -1070 -732 -864 -464 -242 83 -88 -128 258 352 133 347 178 433 752 1013 962 686 871 487 565 246 607 783 1079 983 1013 1333 1192 1215 1381 1013 939 949 1320 1247 1602 1543 1171 1299 986 1338 1247 1626 1610 1578 1499 1726 1757 1679 1848 1802 1856 1675 2135 2022 2375 2614 2682 2667 2237 2125 1772 2159 2398 2441 2857 2871 2852 2849 2734 3154 2966 2973 3106 2768 3128 3167 3076 2762 2776 3197 3352 3201 3643 3565 3709 3398 2999 3160 3331 3559 4164 3977 3812 3961 4184 4449 4472 4272 4616 4328 4227 4324 4678 4662 4624 4541 4980 4794 5177 4999 5045 5088 5250 5273 5305 5516 5755 5706 5683 5646 5327 5694 5590 6246 6397 6631 6723 6491 6276 6344 6373 6711 6541 6558 6960 7225 7517 7712 7571 7573 8023 8286 8100 8314 8279 8315 7931 7815 7838 8082 8712 8670 8984 8978 8674 8646 8791 8522 8185 8517 8556 8399 8336 8079 8215 8285 8161 8340 8584 8615 8615 8596 8628 8975 9046 9046 8838 9264 9287 9273 9110 9502 9529 9484 9143 9256 8841 8399 7931 7587 7792 7592 7415 7065 6929 6703 6277 6046 5861 5576 5322 5377 4960 4292 4377 4061 4119 3463 3400 3118 2747 2514 2298 2149 1525 1658 1424 1237 1077 542 263 77 -321 -527 -827 -979 -1159 -1390 -1190 -1247 -1558 -1513 -2154 -2649 -2730 -2731 -2907 -2934 -2816 -3432 -3570 -3774 -3748 -3808 -4140 -3813 -4097 -4063 -4355 -4100 -3917 -3810 -4355 -4416 -4284 -4527 -4592 -4653 -4403 -4178 -4102 -4209 -4454 -4707 -4672 -4343 -4249 -4415 -4452 -4333 -4512 -4950 -4945 -4525 -4658 -4474 -3998 -4124 -4147 -4086 -4339 -4488 -4628 -4415 -4043 -4087 -4428 -4247 -4400 -4179 -3760 -3966 -3750 -3772 -4163 -4466 -4521 -4873 -4959 -4879 -4350 -4201 -3532 -3269 -3232 -3291 -3701 -3848 -3926 -3752 -3736 -3892 -3516 -3321 -3067 -3155 -3103 -2815 -2761 -3055 -3592 -3519 -3882 -3577 -3513 -3704 -3680 -3477 -3628 -3290 -3224 -3222 -3698 -3914 -3533 -3382 -2728 -2933 -2897 -2544 -2834 -3083 -3407 -3635 -3712 -3214 -3013 -2722 -2818 -2629 -2271 -2269 -2832 -3105 -3129 -2891 -2286 -2396 -2232 -2631 -2624 -2294 -2226 -2184 -2380 -2569 -2692 -3100 -2783 -2548 -2285 -2402 -2279 -2840 -2924 -2825 -2470 -2487 -2640 -2201 -2421 -2268 -2582 -2400 -1948 -2156 -2358 -2592 -2646 -2246 -2316 -1966 -2353 -2612 -2495 -2654 -2178 -2210 -2261 -2581 -2534 -2559 -2224 -2056 -1465 -1212 -1238 -1620 -1654 -1268 -1203 -1540 -1614 -1597 -1157 -906 -1130 -1120 -708 -1077 -1382 -1375 -1287 -955 -982 -1357 -1366 -971 -1089 -680 -490 -638 -465 -875 -1026 -708 -691 -787 -443 -784 -672 -732 -744 -675 -642 -855 -793 -792 -827 -792 -406 -559 -183 40 301 224 574 463 757 1138 1022 1172 1570 1553 1322 1066 644 395 339 -289 -532 -437 -788 -765 -1137 -1345 -1221 -1643 -1806 -1883 -1744 -2095 -1923 -2041 -2143 -1816 -1539 -1400 -1185 -1620 -1725 -2022 -2005 -2148 -1760 -1517 -1549 -1217 -1573 -1531 -1763 -1999 -2322 -1930 -1718 -1679 -1734 -1689 -1910 -1878 -1795 -1506 -1523 -1916 -1772 -2077 -1768 -2078 -1933 -1977 -2171 -2066 -1908 -1881 -1667 -1682 -1909 -1812 -1809 -1895 -1681 -1876 -1819 -1477 -1428 -1627 -1216 -1176 -1560 -1486 -1916 -1768 -1760 -1680 -1836 -1424 -1268 -1281 -1078 -874 -207 342 1029 1817 2248 2698 3202 4150 4931 5631 6921 7910 9444 11185 13163 14612 15324 16103 17219 18029 18392 18987 18552 17111 15550 14089 12332 10462 9572 8536 6554 4203 1150 -1233 -2776 -4087 -5718 -7072 -8571 -9267 -9454 -10240 -11249 -12071 -12001 -12111 -11213 -10494 -9639 -8807 -7413 -6360 -5733 -4829 -4249 -4108 -3549 -3268 -2956 -2804 -2930 -2437 -2160 -1581 -1028 -614 -292 70 123 -57 267 -41 109 36 18 -295 -193 -509 -660 -648 -469 -160 105 336 156 310 -33 -38 342 536 429 774 473 175 -47 -14 155 540 586 387 424 393 502 640 665 753 931 1001 930 1085 924 1395 1212 1364 992 979 974 1019 1176 1624 1461 1501 1502 1629 1265 1259 1650 1477 1420 1608 1626 1496 1822 1673 2095 1772 1884 1796 1626 1262 1601 1437 1812 1733 1980 2047 1944 1783 2160 2323 2190 2212 2256 2561 2658 2472 2880 2941 2781 2809 2785 2744 2924 2920 3085 3193 3453 3622 3532 3579 3478 3290 3283 3267 3602 3267 3425 3413 3234 3591 3494 3959 4210 3975 4185 4118 3836 3998 4437 4234 4287 4723 4884 4742 4979 4503 4253 4417 4308 4538 4989 4832 4833 5123 5028 5488 5356 5320 5474 5107 5006 5096 5695 5807 6131 6368 6778 6644 6786 6906 7267 7280 7232 7170 7032 6976 6804 7269 7445 7512 7338 7414 7707 7706 7399 7362 7325 7334 7683 7773 7592 7662 8010 7842 8282 8450 8479 8469 8130 8076 8306 8222 7913 8196 7900 7927 7903 7878 7831 7966 7601 7730 7329 7156 7112 7091 7270 7219 6894 7016 6630 6341 6115 6191 5973 5752 5503 5078 5157 4949 4706 4356 3783 3578 3258 3129 2557 2191 1770 1575 992 658 423 203 -33 65 -560 -678 -1322 -1622 -1836 -1766 -2118 -1993 -2339 -2263 -2487 -2814 -3380 -3593 -3684 -3651 -3492 -3718 -3990 -4464 -4663 -4721 -4555 -4934 -5137 -5065 -5465 -5495 -5431 -5420 -5429 -5493 -5454 -5298 -5310 -5473 -5114 -5228 -5073 -5462 -5294 -5394 -5151 -4990 -4912 -4910 -4852 -5272 -5752 -5918 -5879 -6055 -6098 -6114 -5865 -5913 -5523 -5684 -5692 -5542 -5579 -5600 -5908 -5558 -5690 -5333 -5259 -5286 -5338 -5369 -5301 -5450 -5381 -5403 -5456 -5457 -5467 -5662 -5713 -5634 -5682 -5636 -5363 -5669 -5719 -5639 -5249 -5381 -5022 -5173 -5132 -4855 -4835 -4815 -4815 -4805 -4828 -4861 -4857 -4834 -4774 -4991 -4988 -4990 -4954 -4604 -4483 -4677 -4696 -4518 -4494 -4672 -4624 -4318 -4466 -4382 -4357 -4424 -4233 -4632 -4635 -4331 -4336 -4313 -4245 -4251 -4320 -4638 -4286 -4278 -4259 -4281 -4345 -4496 -4602 -4531 -4698 -4726 -4534 -4662 -4383 -3988 -4115 -3812 -4103 -4192 -3978 -4003 -4147 -4186 -3993 -4354 -4093 -4130 -3865 -3518 -3471 -3481 -3742 -4161 -4101 -4133 -4158 -3722 -3905 -3826 -4040 -4026 -4140 -3941 -3478 -3694 -3528 -3520 -3697 -3613 -3622 -3459 -3701 -3313 -3424 -2996 -3110 -2733 -2749 -3081 -2788 -2846 -2292 -2324 -1972 -2024 -2343 -2386 -2194 -2429 -1991 -1765 -1801 -1617 -1268 -1633 -1886 -1770 -2070 -2080 -1731 -1516 -1423 -1573 -1297 -708 -852 -882 -1065 -1311 -1255 -1615 -1644 -1460 -1462 -1630 -1626 -1797 -1912 -1668 -1459 -1264 -1220 -1212 -1168 -1578 -1520 -1522 -1274 -1047 -569 73 213 452 802 880 816 780 465 236 -29 -314 -581 -793 -924 -1808 -2325 -2459 -2691 -3112 -3166 -3038 -3413 -3444 -3350 -3158 -2738 -2853 -2798 -3209 -3622 -3289 -3146 -2513 -2228 -1959 -2052 -2113 -2360 -2395 -2429 -2278 -2487 -2821 -2482 -2819 -2760 -3019 -3040 -3194 -2917 -2457 -2289 -2397 -2422 -2287 -2611 -2637 -2295 -2398 -2305 -2332 -2406 -2230 -2277 -2211 -2192 -2222 -2222 -2301 -2590 -2580 -2572 -2614 -2645 -2675 -2640 -2647 -2588 -2568 -2596 -2294 -2188 -2220 -2272 -2252 -2571 -2546 -2719 -2896 -2238 -2136 -1444 -992 -671 -615 -57 729 1476 2022 2883 3230 4110 4779 6174 7533 8863 10724 12505 13972 14830 15627 16061 17007 17486 17526 16940 15915 14314 12873 10634 8924 7629 6727 4996 2881 -347 -2626 -3832 -5652 -7290 -9025 -10347 -10889 -11427 -12333 -13002 -13949 -14012 -13746 -12985 -12071 -10754 -9486 -8121 -7094 -6478 -5752 -4777 -4448 -4179 -3785 -3466 -3367 -2707 -2432 -1681 -1178 -646 -565 -513 -595 -487 -658 -1103 -980 -1358 -1257 -1431 -1865 -1930 -2326 -2360 -1956 -1858 -1550 -1407 -1314 -974 -1071 -710 -715 -759 -876 -785 -896 -882 -790 -487 -853 -756 -755 -652 -485 -244 -334 37 122 -72 -88 -78 -27 -52 -73 305 608 815 839 802 247 54 -181 -313 354 606 605 517 193 240 432 498 427 444 837 699 1046 951 1371 1233 1258 1228 1245 1192 1197 1159 1211 1567 1654 1503 1821 1841 1794 1469 1429 1799 1771 1924 1995 2022 2002 1939 2020 2218 2654 2516 2853 2908 2901 2869 2870 2905 2691 2722 2739 2742 2773 3074 3124 2967 3038 3377 3449 3450 3202 3280 3631 3541 3912 3918 3769 4110 4177 3977 4018 4043 4429 4237 4429 4448 4328 4485 4878 4966 4767 4982 4932 4963 4814 5131 5154 5205 5224 5146 5182 5088 5322 5603 5792 6040 6109 6043 6185 6150 6218 6024 6092 6485 6293 6683 6977 7294 7150 7297 7370 7750 7730 7393 7708 7724 7730 7565 7602 7938 7966 7823 8243 8108 8143 8168 8145 8316 8210 8241 8260 8319 8082 8141 8481 8521 8524 8475 8080 8196 7866 7816 7987 7802 7354 7159 7294 7261 7191 6799 6619 6680 6447 6209 5948 5745 5257 5104 5202 4763 4554 4346 4402 4182 3719 3477 3231 3104 2464 2309 1700 1413 1322 682 576 259 40 -237 -769 -1097 -1192 -1798 -2059 -2328 -2622 -2825 -2870 -2706 -3109 -3058 -3314 -3500 -3909 -3810 -4186 -4051 -4076 -4070 -4459 -4338 -4669 -4489 -4866 -4972 -5133 -5056 -5276 -5651 -5709 -5719 -5738 -5752 -5561 -5904 -5933 -5992 -5820 -5878 -6223 -6043 -6020 -6219 -6182 -6163 -5872 -5803 -5950 -5577 -5566 -5923 -5802 -5826 -6003 -5909 -5608 -5569 -5540 -5692 -5658 -5655 -5712 -5578 -5965 -5977 -5963 -5627 -5517 -5658 -5348 -5644 -5535 -5930 -5801 -5858 -5794 -5933 -5579 -5747 -5713 -5353 -5461 -5446 -5286 -5374 -5314 -5479 -5471 -5258 -5492 -5428 -5242 -4787 -4867 -4582 -4597 -4934 -4781 -4783 -4760 -4786 -4823 -4847 -4864 -4842 -4834 -5134 -5168 -5218 -5041 -5117 -5388 -5224 -4988 -4736 -4298 -4229 -4386 -4369 -4373 -4230 -4641 -4665 -4329 -4270 -4418 -4209 -3897 -3675 -3705 -3545 -3814 -4019 -3981 -4097 -3763 -3786 -3820 -3777 -3730 -3948 -3879 -3886 -3915 -3893 -3506 -3610 -3617 -3465 -3844 -3880 -3907 -3941 -3820 -4196 -4222 -4155 -4144 -4121 -4125 -4136 -3794 -3731 -3891 -3539 -3514 -3579 -3904 -3862 -3849 -3898 -3934 -3861 -3500 -3629 -3305 -3324 -3683 -3488 -3533 -3864 -3915 -3713 -3907 -3547 -3679 -3295 -3451 -3368 -3046 -2999 -3194 -3145 -2739 -2508 -2566 -2184 -2378 -2319 -2036 -2014 -2012 -1967 -2067 -1887 -1820 -1876 -2061 -1990 -1961 -1780 -1674 -1903 -1503 -1652 -1469 -1498 -1459 -1267 -1345 -1320 -1180 -1620 -1428 -1794 -1682 -1772 -2093 -2068 -1905 -1521 -1413 -1442 -1912 -2149 -2166 -1903 -1585 -1150 -391 -179 -248 -250 -264 295 220 167 -55 -258 -158 -580 -596 -240 -192 -612 -760 -1247 -1703 -2021 -2286 -2558 -3092 -3022 -3342 -3017 -3168 -3084 -2762 -2695 -2892 -2862 -2844 -2857 -2827 -2517 -2500 -2823 -2835 -2526 -2465 -2494 -2518 -2821 -2881 -2919 -2938 -2721 -2702 -2699 -2926 -2932 -2914 -2895 -2883 -2557 -2635 -2290 -2251 -2224 -2208 -2197 -2397 -2401 -2177 -2229 -2236 -2211 -2205 -2300 -2435 -2822 -2900 -2885 -2521 -2439 -2562 -2213 -2186 -2243 -2566 -2474 -2889 -2712 -2705 -2914 -2880 -2877 -2839 -2843 -2907 -2737 -2708 -2665 -2307 -1908 -1549 -915 -421 256 1125 1699 2452 3454 3823 4488 5284 6357 8038 9645 11708 13830 15136 15571 16126 17270 18187 18314 18084 17496 16176 14304 12662 10436 9035 7314 6170 4248 2174 -405 -2506 -4324 -6506 -8417 -10479 -12155 -13095 -13461 -14440 -14832 -15096 -15198 -14694 -13463 -12246 -11308 -10107 -9023 -7623 -6559 -5994 -5042 -4698 -4077 -3766 -3626 -3081 -2280 -1720 -1189 -757 -492 -425 -428 -437 -769 -855 -706 -1104 -1347 -1548 -1499 -1757 -1926 -2308 -1980 -1670 -1569 -912 -885 -881 -872 -818 -471 -434 -615 -526 -593 -441 -879 -1041 -955 -946 -1046 -893 -460 -170 -319 -375 -194 -577 -424 -620 -377 66 136 793 1127 981 961 1054 643 823 790 854 1133 1181 1645 1626 1543 1228 1155 1352 1287 1287 1289 1351 1196 1546 1646 1428 1468 1663 1581 1542 1596 1637 1602 1593 1581 1582 1269 1189 1205 1597 1444 1525 1868 1855 1884 1861 1849 1904 1769 2080 2145 2164 1958 2373 2245 2563 2606 2627 2441 2503 2824 2879 2892 2942 2755 3116 3171 3033 3370 3418 3241 3604 3642 3461 3476 3502 3869 3937 3735 4104 3814 4111 4059 4241 4641 4712 4520 4509 4622 4330 4483 4928 5183 5095 5253 5282 5321 5681 5574 5951 5820 6198 6017 6238 6263 6029 6073 6450 6340 6759 6628 6977 6997 6809 7184 7071 7497 7681 7705 7763 7738 7399 7392 7560 7634 8024 7850 8056 7648 7734 7391 7486 7439 7708 7955 7913 8457 8428 8759 8579 8679 8841 8838 9054 9031 8916 9334 9512 9360 9411 9808 9789 9518 9333 8931 8608 8538 8169 8479 8162 7842 7768 7462 6795 6717 6700 6592 6615 6574 6770 6319 6215 5583 5454 4835 4519 4301 4086 4108 3902 3640 3007 2894 2590 2034 1913 1219 1081 473 549 300 -320 -453 -709 -1327 -1246 -1461 -1762 -1926 -2041 -2377 -2389 -2179 -2595 -2697 -3423 -3637 -3480 -3497 -3847 -3525 -3897 -4204 -4229 -4880 -5194 -5441 -5312 -5262 -5428 -5278 -5544 -5903 -5591 -5577 -5988 -6187 -6052 -6263 -5778 -5691 -5319 -5475 -5092 -5635 -5957 -5842 -5917 -5373 -5465 -5045 -5131 -5160 -5032 -5494 -5482 -5407 -5322 -5680 -5356 -5639 -5361 -5377 -5156 -4811 -4836 -5182 -5186 -5131 -5152 -5176 -5231 -5404 -5473 -5111 -5080 -5026 -5177 -4959 -4498 -4507 -4587 -4567 -4492 -4533 -4900 -4971 -4796 -4756 -4523 -4623 -4330 -4258 -4430 -4466 -4635 -4636 -4072 -3786 -3964 -3948 -3938 -3951 -3807 -4053 -4093 -4173 -3962 -3510 -3538 -4133 -4372 -4065 -4161 -3945 -3902 -3723 -3738 -3759 -3821 -3818 -3790 -3752 -3716 -3723 -3580 -3704 -3528 -3923 -4123 -4184 -3831 -3873 -3261 -3336 -3369 -3446 -3324 -3601 -3458 -3492 -3474 -3482 -3423 -3194 -2796 -2708 -2689 -2754 -3112 -2996 -2952 -3172 -3121 -3078 -2933 -2837 -2840 -2907 -2789 -2998 -3070 -3369 -3417 -3340 -3351 -3066 -3401 -3392 -3203 -3378 -2958 -2807 -2691 -2759 -3167 -3225 -3241 -2963 -2877 -2490 -2478 -2849 -2920 -2714 -2761 -3100 -2803 -2863 -2877 -2535 -2607 -2579 -2510 -2538 -2884 -2479 -2398 -2164 -1699 -1489 -1556 -1572 -1611 -1628 -1239 -1313 -1016 -1004 -1133 -760 -737 -761 -1025 -920 -1019 -994 -940 -968 -1061 -885 -871 -675 -667 -791 -415 -500 -702 -1130 -1373 -1559 -1279 -1291 -904 -954 -1391 -1554 -1276 -1351 -1313 -1388 -1391 -1354 -913 -655 -401 -166 74 351 226 609 842 1027 909 1071 849 246 18 -598 -822 -1028 -1004 -1294 -1365 -1593 -1886 -1926 -2279 -2851 -2754 -2723 -2704 -2940 -2935 -2860 -2477 -2192 -2309 -1968 -2051 -2085 -2004 -1985 -2151 -2113 -1946 -2340 -2319 -1974 -1957 -1940 -2158 -2080 -1951 -2291 -2513 -2499 -2687 -2679 -2292 -2584 -2289 -2217 -2219 -2210 -2214 -2605 -2468 -2827 -2709 -2754 -2484 -2427 -2336 -2357 -2332 -2194 -2589 -2579 -2274 -2223 -2426 -2381 -2372 -2038 -1925 -2132 -2102 -2076 -2104 -2138 -1945 -1982 -2000 -2120 -1680 -1877 -1870 -1815 -1519 -1652 -1317 -913 -763 -453 72 847 1437 2400 2719 3657 4388 4828 5963 7291 8592 10555 12210 14108 14986 16155 16864 18087 19178 19647 19755 19016 17549 16130 14107 11682 9932 8976 7784 6231 3608 445 -1908 -3484 -5312 -7763 -9571 -10789 -11527 -12056 -12778 -13936 -14289 -14553 -14077 -13315 -12087 -10768 -9494 -8164 -7136 -6446 -5508 -5024 -4489 -4161 -3627 -3195 -2513 -2192 -1725 -1222 -451 56 -62 -114 39 -362 -530 -552 -559 -769 -1143 -1242 -1596 -1275 -1155 -1372 -1289 -1063 -649 -869 -483 -523 -209 -316 -79 180 193 280 42 -204 -559 -560 -177 -87 161 569 618 587 633 412 812 643 760 1065 674 728 1042 1056 728 734 1073 947 1310 978 1053 640 800 698 1110 935 989 995 1316 1352 1285 987 972 1094 720 1094 1161 1654 1481 1494 1461 1429 1416 1524 1864 1895 1771 1932 2388 2295 2631 2506 2864 2827 2658 2611 2618 2627 2603 2616 2628 2472 2880 2704 3083 3119 2779 2731 3074 3328 3320 3690 3646 3640 3850 3784 4132 4355 4466 4228 4078 4126 3818 4204 4011 4194 3993 4053 4029 3985 4031 4476 4506 5148 5432 5257 5495 5305 5378 5106 5451 5305 5463 5276 5636 5335 5266 5466 5353 5733 5614 5772 5974 5977 5955 5923 5619 5788 6142 6640 7106 7055 6909 7007 6863 7086 7468 7545 7495 7532 7359 7802 7604 7618 8207 8131 8172 8140 7906 7800 7754 7980 8249 8152 8349 8777 8378 8119 8229 8290 8187 8430 9008 9068 8669 8825 8429 8370 8440 8446 8587 8698 8703 9051 8983 8760 8326 8540 8466 8124 8265 8003 7413 7460 7286 6881 7030 6743 6230 5971 5610 5729 5478 5042 5190 4892 4272 4221 3960 3476 3426 2706 2646 2382 2120 1690 1448 1194 939 658 442 526 -53 -135 -788 -714 -1080 -1202 -1470 -1818 -1746 -1975 -2373 -2360 -2418 -2588 -2537 -2781 -2969 -3423 -3313 -3611 -3641 -3691 -3601 -3301 -3863 -3993 -4054 -4099 -3800 -4167 -4009 -4227 -4652 -4502 -4965 -4800 -4972 -4928 -4773 -4811 -4982 -4900 -4506 -4320 -4667 -4782 -5047 -5239 -5223 -5208 -4758 -4868 -4619 -4417 -4463 -4341 -4299 -4248 -4281 -4260 -4234 -4227 -4430 -4227 -4326 -4340 -4662 -4693 -4676 -4436 -4403 -4290 -4350 -4277 -4230 -4279 -4334 -4469 -4009 -4169 -3827 -3942 -3962 -3732 -3764 -3728 -3897 -3533 -3689 -3684 -3461 -3468 -3695 -3498 -3563 -3882 -3861 -3908 -3775 -3939 -3931 -3791 -3817 -3738 -3746 -3950 -3937 -3905 -3472 -3222 -3208 -3710 -3571 -3310 -3382 -3292 -3650 -3327 -3406 -2952 -3151 -2997 -3377 -3036 -3104 -2753 -2745 -2756 -2731 -2715 -2768 -3082 -2920 -2480 -2849 -2916 -2844 -2901 -2977 -3329 -3179 -2927 -2833 -2470 -2472 -2753 -3083 -2691 -2544 -2903 -2792 -2920 -2661 -1960 -1760 -2065 -1995 -1967 -2115 -1776 -1789 -2094 -2107 -1792 -2115 -2040 -2392 -2195 -2185 -2019 -2119 -2165 -2325 -2416 -2263 -2218 -2408 -2387 -2259 -2438 -2718 -2873 -2575 -2020 -1776 -1847 -1532 -1798 -1417 -1591 -1173 -931 -764 -754 -768 -1094 -1138 -1126 -1038 -1082 -928 -1019 -1351 -1322 -1022 -999 -1281 -1018 -987 -1367 -1559 -1424 -1623 -1218 -1354 -1021 -1114 -770 -148 19 -301 -132 -208 -556 -829 -748 -670 -565 -378 -152 -581 -640 -622 -592 -623 -436 -582 -340 86 -68 332 254 559 586 595 443 537 310 122 -350 -620 -849 -686 -928 -1596 -1467 -1503 -1809 -1816 -1865 -1776 -1933 -1971 -1936 -2156 -2086 -2087 -2051 -1920 -1814 -1836 -1875 -1741 -2002 -2314 -1963 -1789 -1827 -1527 -1665 -1778 -2340 -2230 -2293 -2254 -2430 -2193 -2201 -2470 -2907 -2825 -2579 -2366 -2372 -2145 -1764 -1913 -1764 -2172 -2035 -2345 -2218 -2570 -2572 -2660 -2270 -2423 -2405 -2185 -2190 -2285 -2627 -2619 -2235 -2375 -2201 -2237 -2298 -2595 -2298 -2379 -1999 -2167 -2155 -1930 -2094 -1673 -1799 -1808 -1844 -1901 -2080 -2088 -1883 -1477 -1176 -756 -216 344 867 1553 2002 2527 3005 3460 4270 5308 6569 8169 10353 12398 14164 15367 16042 17233 18024 18332 18966 18414 17722 16476 14872 12908 11053 9352 8564 7085 5011 2324 -623 -2577 -4390 -5826 -7725 -9028 -9647 -10240 -10898 -11762 -12651 -13101 -12793 -12278 -11431 -10400 -9532 -8167 -7108 -6491 -5754 -4787 -4446 -3715 -3262 -3166 -2844 -2251 -1932 -1513 -1380 -1046 -462 -518 -287 -9 250 578 244 277 -369 -421 -862 -1072 -1293 -1368 -1339 -942 -874 -520 -267 -105 266 152 253 518 156 289 378 454 689 656 790 428 607 198 359 346 132 230 395 477 456 492 451 502 888 725 1133 1018 1358 1336 1303 1146 1139 1353 1635 1798 1834 1886 1863 1855 1727 1964 2371 2189 2222 2357 2034 2043 2309 1990 1940 2022 2402 2427 2358 2341 2423 2230 2200 2587 2662 2619 2599 2672 2525 2908 2807 3148 2975 3186 3004 2956 2806 2930 2704 2801 3154 3052 3446 3285 3441 3005 2966 2983 3031 3423 3261 3640 3524 3582 3890 3828 4001 4006 4028 4072 4004 4200 4422 4649 4533 4900 4979 4571 4733 4669 4635 4576 4819 5062 5065 5228 5077 5415 5496 5331 5581 5881 6471 6333 6283 6080 6216 6245 6241 6077 6096 6139 6346 6916 6949 6577 6589 7014 7291 7546 7510 7348 7733 7340 7146 7133 7478 7548 7394 7558 7852 8099 8273 8216 7891 7948 7580 7796 7942 8245 8144 8322 8446 8396 8377 8704 8771 8658 9033 9007 8979 8655 8593 8586 8719 8712 8767 8640 8595 8798 8782 8413 8109 7824 7941 7579 7681 7301 7436 7083 7040 7280 6886 6703 5855 5521 5371 5097 4740 4699 4263 4190 3749 3877 3323 3193 2842 2646 2424 2125 1667 1531 1203 940 672 423 183 121 -199 -434 -671 -898 -1166 -1542 -1606 -1844 -1957 -2430 -2649 -2828 -2813 -2991 -3428 -3240 -3274 -3317 -3488 -3908 -3759 -3825 -4177 -3978 -4381 -4616 -4579 -4576 -4543 -4516 -4892 -4908 -4931 -4946 -4786 -4833 -4796 -4752 -4771 -4910 -4905 -4932 -4755 -4835 -4824 -4774 -4795 -4772 -4739 -4970 -4974 -4948 -4784 -5207 -5397 -5442 -5466 -5309 -5313 -5433 -5377 -5454 -5437 -5053 -5171 -4805 -4970 -4762 -4772 -4800 -5155 -5192 -5185 -4820 -4941 -4605 -4518 -4481 -4631 -4284 -4311 -4705 -4883 -4878 -4718 -4261 -4040 -4220 -4022 -4353 -4409 -4409 -4008 -3977 -4056 -4411 -4383 -4218 -3775 -3961 -3783 -4023 -4332 -4493 -4612 -4398 -4042 -4096 -4442 -4449 -4379 -4361 -4093 -4094 -4176 -3728 -3899 -3536 -3702 -3651 -3654 -3501 -3872 -3933 -3731 -3728 -3901 -3506 -3648 -3674 -3501 -3849 -3718 -3828 -3831 -4167 -4199 -4005 -4222 -3735 -3643 -3308 -3618 -3673 -3266 -3374 -3362 -3439 -3449 -3253 -3249 -3240 -2987 -3102 -2703 -2772 -3137 -3164 -3079 -3119 -2795 -3175 -3003 -3445 -3203 -3303 -3219 -3334 -2985 -3022 -3067 -3378 -3444 -3439 -3442 -3377 -3020 -3114 -3122 -2706 -2709 -2808 -3112 -2719 -2822 -2452 -2483 -2649 -2415 -2091 -1681 -1793 -1459 -1611 -1582 -1654 -1519 -1844 -1504 -1437 -1425 -1419 -1463 -1526 -1472 -1509 -1519 -1642 -1218 -1202 -1202 -1204 -1194 -1016 -1055 -789 -435 -781 -863 -842 -800 -872 -1080 -991 -1389 -1248 -1599 -1630 -1549 -1193 -1254 -1543 -1219 -1173 -1265 -1551 -1163 -905 -502 -306 138 607 639 635 606 482 777 598 279 -327 -420 -1030 -1395 -1438 -1874 -2053 -2013 -2566 -2884 -3108 -3121 -3156 -2970 -2970 -2745 -2464 -2282 -2626 -2459 -2521 -2469 -2449 -2617 -2668 -2500 -2451 -2606 -2679 -2632 -2476 -2832 -2799 -2985 -3410 -3329 -3035 -2996 -3040 -3198 -2805 -2919 -2558 -2673 -2642 -2675 -2468 -2822 -2552 -2478 -2682 -2612 -2489 -2746 -2808 -3119 -3106 -3096 -3128 -2803 -2882 -2926 -2871 -2536 -2500 -2832 -2546 -2508 -2496 -2453 -2264 -2009 -1982 -2004 -2371 -2201 -2598 -2661 -2466 -2648 -2206 -1937 -1869 -1557 -1003 -728 -583 274 753 1521 2241 3148 3531 4427 4791 5589 7033 8356 10562 12265 13777 14767 15715 16399 17229 17948 17906 17732 16745 15383 13451 11821 10036 8334 7441 5857 3801 941 -1612 -3230 -5232 -6621 -8506 -9629 -10880 -11641 -11965 -13078 -13507 -13733 -13463 -13085 -11952 -11087 -9672 -8414 -7484 -6505 -5720 -4826 -4295 -4169 -3926 -3536 -3452 -2813 -2487 -2411 -1874 -920 -592 -377 -371 -517 -591 -577 -637 -832 -1077 -1357 -1575 -1638 -1581 -1223 -1358 -989 -930 -938 -1031 -804 -601 -514 -205 -230 -534 -595 -400 -409 -456 -490 -803 -838 -456 -389 -393 -555 -377 43 -90 -13 -43 -85 -31 140 597 479 501 447 391 390 463 416 215 128 368 179 557 253 236 632 885 1070 1129 1057 718 879 821 845 710 941 1394 1212 1276 1606 1611 1265 1199 1245 1628 1464 1458 1585 1249 1240 1596 1519 1733 2072 2093 1755 1703 1751 1969 2378 2197 2201 2234 2275 2609 2489 2539 2877 2553 2484 2488 2860 2744 3155 3034 3416 3249 3593 3620 3612 3305 3222 3236 3317 3497 3714 3979 4451 4615 4652 4351 4255 4237 4268 4636 4562 4779 4996 5471 5323 5641 5723 5518 5594 5903 5905 5975 6010 5825 5813 5873 6083 6508 6682 6772 6683 6439 6227 5877 6165 6046 6395 7032 6901 7282 7281 7061 7295 7222 6886 6871 7037 6996 7032 7048 7394 7958 8296 8191 8506 8512 8139 8068 8243 7911 7817 7846 8223 8166 8561 8435 8445 8362 8491 8108 8285 8259 8258 8277 8283 7917 7863 8053 8025 8023 7814 7820 7926 7920 8053 7588 7333 7042 6802 6616 6660 6446 6224 5957 5667 5103 4761 4707 4376 4107 3570 3275 3048 3096 2554 2225 2100 1444 1322 1111 714 806 519 -20 -273 -416 -708 -921 -1341 -1267 -1514 -1785 -1929 -2409 -2686 -2697 -2951 -3436 -3685 -3845 -3908 -3745 -4146 -4161 -3969 -4460 -4655 -4528 -4535 -4712 -4580 -4983 -4764 -4845 -5134 -4837 -4817 -4747 -4972 -4770 -4828 -5181 -5071 -5398 -5089 -5248 -5020 -5377 -5500 -5647 -5550 -5931 -5907 -5616 -5576 -5506 -5687 -5348 -5340 -5307 -5253 -5300 -5553 -5926 -5920 -5585 -5758 -5656 -5277 -5407 -5120 -5036 -5232 -5061 -5441 -5258 -5269 -5457 -5081 -5029 -5243 -5017 -5040 -5073 -5385 -5378 -5108 -5084 -5046 -5223 -5148 -4812 -4956 -4900 -4878 -4589 -4573 -4545 -4529 -4553 -4569 -4557 -4873 -4882 -4539 -4651 -4648 -4736 -4581 -4919 -4800 -5155 -4813 -4607 -4617 -4230 -4261 -4337 -4722 -4516 -4507 -4523 -4513 -4659 -4611 -4342 -4339 -4639 -4609 -4288 -4225 -4421 -4439 -4463 -4470 -4421 -4373 -4064 -4006 -4028 -4396 -4227 -4465 -4062 -4204 -4111 -3788 -3907 -3861 -3573 -3526 -3876 -3949 -4104 -3983 -4007 -4182 -4149 -4115 -4097 -3813 -3789 -3776 -3946 -3576 -3524 -3517 -3685 -3676 -3465 -3510 -3560 -3485 -3586 -3441 -2976 -3092 -3101 -3130 -2947 -3008 -3344 -3068 -3383 -3207 -3253 -3283 -3257 -3205 -3396 -3337 -3059 -3340 -3022 -3166 -2809 -2792 -2805 -3181 -2968 -2970 -2953 -3140 -2743 -2712 -2700 -2873 -2451 -2577 -2243 -2191 -2363 -2001 -1967 -2020 -2044 -2330 -2339 -2305 -1972 -2112 -1844 -1596 -1237 -1242 -1611 -1517 -1884 -1691 -1714 -1915 -1803 -1625 -1407 -1003 -947 -1145 -1025 -695 -678 -1031 -912 -901 -1063 -1066 -911 -1342 -1237 -1279 -1214 -1339 -917 -717 -841 -471 -576 -199 -340 104 285 221 414 798 836 792 775 440 591 220 257 -261 -249 -810 -1142 -1266 -1838 -2114 -2328 -2252 -2673 -2856 -2746 -2791 -2729 -2707 -2942 -2836 -2507 -2449 -2435 -2504 -2832 -2552 -2525 -2449 -2497 -2889 -2909 -2710 -2904 -2879 -2721 -2808 -2936 -2857 -2901 -2714 -3094 -3129 -3157 -2762 -2764 -2739 -2914 -2462 -2687 -2467 -2849 -3073 -2792 -2699 -2855 -2824 -2538 -2453 -2478 -2462 -2491 -2516 -2470 -2653 -2649 -2641 -2579 -2594 -2664 -2672 -2626 -2606 -2284 -2239 -2566 -2602 -2600 -2261 -2413 -2391 -2387 -2402 -2377 -2356 -2009 -2064 -1835 -1580 -999 -880 -154 175 902 1687 2620 3039 3938 4301 5113 6404 7363 9056 10624 12903 14598 15653 16020 16828 17976 18358 18768 18299 17238 15553 13760 11770 9898 8545 6868 5657 3612 664 -1528 -3614 -5120 -7291 -9188 -10938 -12300 -12769 -13274 -14172 -14256 -14233 -13824 -13348 -12309 -10900 -9666 -8792 -7796 -6615 -5960 -5147 -4249 -3723 -3652 -3061 -2693 -2257 -2149 -1499 -1344 -1043 -806 -408 -534 -201 -241 -605 -827 -1102 -1006 -1360 -1396 -1157 -1171 -1195 -1393 -1359 -1289 -965 -1086 -662 -503 -396 -553 -167 -347 -326 -373 -175 -254 -588 -609 -215 -327 91 -93 -18 286 337 196 579 416 464 497 821 777 471 472 501 777 840 829 860 863 884 657 728 1027 1062 1064 1083 1117 1010 1185 1555 1629 1595 1253 1190 1272 1532 1915 1670 1709 1696 1917 1672 1666 1685 1752 2104 2043 2425 2418 2325 2034 2308 2417 2407 2006 2065 1733 2090 2331 2577 2528 2702 3178 3366 3433 3453 3428 3411 3355 3026 3341 3455 3679 3715 4003 4402 4437 4411 4086 4078 4068 4042 4048 4352 4436 4235 4321 4703 4554 4933 4958 4772 4795 4743 4954 4774 5170 5051 5070 5452 5296 5632 5673 5752 5899 5944 5927 5945 5760 5885 6216 6026 6457 6658 6623 6809 7217 7236 6886 6825 6848 7217 7295 7103 7145 7468 7311 7396 7708 7806 7972 7820 7836 8059 8059 7841 8236 8163 8534 8324 8352 8371 8430 8741 8808 8595 8631 8632 8615 8664 8682 8675 8984 9059 8856 8882 8926 8934 8941 8897 8924 8940 8837 8678 8585 8786 8721 8551 8112 8237 7875 7946 7735 7537 7076 6813 6555 6516 6209 5963 5545 5349 5403 5157 4870 4341 4358 3827 3569 3326 3183 2820 2676 2202 2122 1793 1253 945 854 607 567 210 -60 -166 -833 -1011 -1622 -1504 -1526 -1873 -1935 -2236 -2457 -2723 -3018 -3254 -3629 -3511 -3939 -3772 -3785 -4136 -4057 -4243 -4303 -4291 -4650 -4502 -4519 -4501 -4497 -4516 -4524 -4578 -4866 -4964 -4783 -4751 -4923 -4888 -4965 -4842 -4995 -5067 -5021 -5221 -5236 -5052 -5091 -5063 -5241 -4861 -4811 -4856 -5197 -5169 -4844 -4854 -5189 -5043 -5392 -5445 -5442 -5402 -5208 -4794 -4804 -5169 -4995 -5017 -5144 -4794 -4942 -4892 -4596 -4941 -4808 -5122 -4824 -4944 -4915 -4755 -4969 -4594 -4718 -4683 -4513 -4572 -4932 -4790 -5216 -5087 -5053 -4801 -4532 -4481 -4578 -4897 -4881 -4590 -4601 -4552 -4601 -4963 -4779 -4781 -4758 -4884 -4526 -4514 -4574 -4867 -4865 -4699 -4231 -4415 -4084 -4021 -4363 -4480 -4237 -4269 -4289 -4281 -4462 -4024 -4209 -4388 -4332 -4649 -4619 -4324 -4266 -4469 -4324 -4331 -4184 -3879 -3574 -3879 -3582 -3522 -3492 -3710 -3501 -3502 -3601 -3210 -3373 -3033 -3048 -2975 -3094 -3166 -3424 -3625 -3687 -3621 -3321 -3467 -3891 -3565 -3575 -3629 -3212 -3069 -3021 -3029 -3354 -3392 -3229 -3438 -2996 -2762 -2723 -3167 -3020 -3185 -2816 -3109 -2979 -3377 -3303 -3318 -3267 -3446 -3385 -3065 -3181 -3156 -2969 -2994 -3340 -3356 -3020 -3184 -3085 -3131 -3151 -3146 -3170 -2951 -3078 -2637 -2014 -2144 -2305 -2294 -2456 -2878 -2929 -2534 -2669 -2267 -2385 -2006 -2164 -1691 -1525 -1613 -1269 -1563 -1596 -1542 -1619 -1527 -1913 -1761 -1785 -1903 -1598 -1324 -1020 -984 -928 -1128 -1085 -1035 -656 -820 -497 -571 -348 -112 156 187 174 338 -18 109 10 122 -45 278 144 162 344 -68 -269 -265 58 -40 544 694 1007 1244 1436 1845 1882 1531 1416 1500 1902 1892 1908 1813 1553 1125 838 579 98 -499 -988 -1207 -1390 -1333 -1180 -1420 -1760 -1992 -2043 -2173 -1760 -1851 -1808 -1866 -1733 -2126 -2153 -1769 -1860 -1429 -1612 -1477 -1845 -1875 -1680 -1705 -1675 -1517 -1420 -1915 -1779 -1866 -1572 -1377 -1194 -1421 -1865 -1755 -1734 -1689 -1878 -1809 -1817 -1534 -1463 -1439 -1516 -1690 -1784 -1731 -1682 -1731 -1745 -1684 -1823 -1517 -1859 -1907 -1451 -1403 -962 -1002 -1388 -1170 -1259 -1441 -1530 -1823 -1834 -1505 -1258 -964 -1028 -671 -651 -733 -1116 -993 -1313 -1010 -1115 -588 -61 819 1644 2572 3384 3950 4383 4928 5072 5595 6684 7943 9375 11473 13845 15274 16380 17506 18217 19034 19771 19925 19971 18944 17472 15542 13742 12134 10137 8976 7438 5454 2941 230 -1595 -2994 -5139 -7431 -9297 -10222 -11248 -12323 -12772 -13216 -13614 -13228 -13078 -12011 -10695 -9591 -8269 -6611 -5741 -4743 -4360 -3699 -3184 -2907 -2259 -2035 -1790 -1601 -881 -322 515 741 926 955 1075 834 600 324 47 -339 -135 -158 -534 -396 -426 -575 -197 -276 262 555 500 887 723 1042 1070 1067 1072 1030 753 1040 1042 658 775 593 540 590 571 213 222 248 634 462 651 902 1275 1807 1469 1222 1155 1225 1537 1663 1821 1760 1941 2047 2222 2212 2193 2270 2643 2575 2028 1788 1827 1636 1613 1864 1988 2392 2335 1953 1701 1694 2079 1948 1988 2359 2579 2474 2905 3156 2947 2942 2447 2519 3117 3210 3658 3469 3322 3445 3183 3199 3390 3263 3641 3691 3661 3692 3701 3573 3782 3975 4220 4354 4267 4279 4008 3834 3809 4083 4721 4747 4975 4566 4497 4554 4507 4713 4714 4723 4869 4970 4818 5225 5465 5676 5717 5702 5674 5637 5373 5303 5279 5330 5703 5975 6042 6401 6159 5967 5752 5654 5301 5326 5738 5901 5786 5876 6208 6103 6456 6359 6766 6636 6787 6897 6860 6789 6649 6934 6897 7352 7992 7909 8299 8166 8191 8172 8504 8467 8117 8093 8127 8499 8430 9016 8854 8650 8770 8739 8374 8487 8133 8465 8375 8416 8792 8644 8636 8705 8531 8126 8475 8402 8324 8488 8474 8508 8465 8488 8409 8608 8676 8766 8458 7865 7362 7231 6946 6780 6693 6356 6460 6067 5782 5681 5388 5157 4585 4446 3958 3313 3355 3056 2984 3117 2725 2610 1944 1892 1488 1801 1638 1299 440 -63 -378 -392 -835 -752 -751 -911 -1278 -1529 -2176 -2314 -2179 -2580 -2863 -3093 -2809 -2806 -3121 -3028 -3263 -3567 -3963 -3802 -3827 -3728 -3899 -3918 -4103 -4055 -4452 -4243 -4638 -4399 -4060 -4085 -4361 -4470 -4308 -4262 -4239 -4281 -4429 -4246 -4715 -4958 -4887 -4682 -4655 -4606 -4983 -4981 -4974 -4741 -4928 -4879 -4503 -4674 -4625 -4733 -4904 -4897 -4645 -4042 -4110 -3781 -4123 -4021 -4050 -4010 -4121 -3771 -3725 -3811 -4170 -4075 -4260 -4309 -4448 -4181 -3783 -3808 -3974 -4437 -4479 -4458 -4449 -4393 -4079 -4047 -4208 -4125 -4149 -4076 -4474 -4404 -4090 -4027 -3995 -4080 -4060 -4122 -3577 -3252 -3415 -3249 -3359 -3021 -3400 -3455 -3410 -3406 -3264 -3320 -3262 -3355 -2791 -2875 -2870 -2538 -2483 -2538 -3109 -3052 -3058 -2993 -2955 -3058 -3314 -3601 -3220 -3342 -3340 -3311 -3292 -2994 -2724 -2472 -2440 -2521 -2711 -2803 -2791 -3082 -2761 -2847 -2562 -2350 -2021 -2368 -2331 -2306 -2182 -2583 -2281 -2372 -1951 -1751 -1790 -1923 -2202 -2503 -2742 -2757 -2547 -2455 -2846 -2720 -2898 -2491 -2657 -2651 -2462 -2875 -2726 -2796 -3036 -3203 -3259 -3401 -3009 -2772 -2622 -2212 -2207 -2253 -2242 -2205 -2207 -2207 -2200 -2276 -2570 -2569 -2226 -2015 -2071 -2101 -2026 -2221 -2364 -2049 -1458 -1658 -1458 -1416 -1177 -933 -1118 -1125 -927 -1007 -1285 -1004 -1002 -951 -1082 -1086 -1144 -1083 -709 -726 -1040 -718 -663 -875 -646 -713 -767 -1026 -1029 -1114 -966 -1330 -1157 -1260 -1249 -1400 -992 -1036 -677 -646 -509 -627 -407 -471 -602 -231 -376 -96 589 861 718 938 1190 1265 1198 1362 921 872 631 356 102 -280 -354 -410 -1112 -1350 -1538 -1662 -1821 -1462 -1620 -1445 -1686 -2150 -2013 -1985 -2150 -1761 -1675 -1899 -1704 -1942 -2009 -1741 -1612 -1212 -1234 -1646 -1827 -1844 -1800 -1880 -2053 -2311 -2301 -2637 -2455 -2502 -2823 -2831 -2600 -2417 -1988 -2413 -2658 -2555 -2871 -2525 -2630 -2613 -2634 -2302 -2193 -2129 -1916 -1901 -1876 -1780 -2138 -1984 -2018 -2018 -2024 -2144 -1763 -2061 -2132 -2125 -1981 -2269 -2680 -2266 -1958 -1788 -2090 -2106 -1775 -1862 -1435 -1449 -1521 -1466 -1620 -1219 -1295 -1057 -415 -116 694 1757 2942 3693 3828 4396 4501 4992 5802 7257 8484 9680 11903 13866 15046 16393 17113 18482 18942 19501 18886 17851 16705 15136 13603 11649 10153 9252 7950 6000 2705 -167 -2240 -3848 -5185 -6617 -8757 -10020 -10459 -10895 -11750 -12750 -13694 -13904 -13574 -12476 -11384 -9664 -8737 -7714 -6657 -5512 -4863 -4350 -4211 -3730 -3557 -3379 -2702 -2197 -1890 -1364 -499 47 150 396 892 1030 746 770 612 592 600 559 216 260 24 -207 -402 -787 -507 -551 127 605 700 722 648 801 574 140 374 196 616 460 453 614 206 192 514 606 479 874 645 720 1037 1087 1151 767 492 497 1035 979 1326 1238 1261 1158 1362 1355 1326 1390 1259 1602 1638 1578 1263 1551 1494 1720 1700 1497 1554 1603 1470 1838 1870 1836 1850 1716 2058 1719 1845 1919 2153 1956 2010 2179 2293 2572 2591 2653 2685 2511 2909 2716 2765 2777 2799 3134 3010 3360 2986 2978 3347 3384 3446 3405 3018 3444 3296 3630 3306 3374 2981 3331 3604 3576 3948 3761 3745 3916 3573 3705 3645 3671 3582 3741 4132 4425 4241 4365 4187 4115 4048 4406 4272 4666 4515 4554 4551 4579 4749 4856 5150 5080 5288 5549 5986 5831 5785 5586 5667 5740 5903 5777 6090 6285 6380 6549 6627 6610 6780 6710 6724 6568 6543 6596 6979 6821 6898 7249 7065 7458 7387 7742 7356 7503 7106 7081 7527 7738 7968 7933 8258 8054 8001 7834 8272 8148 8468 8564 8518 8449 8096 8076 8203 7918 7894 7811 8025 7861 8274 8458 8570 8075 7666 7356 7137 6847 6593 6691 6673 6368 6283 6453 6248 5963 5347 5064 4797 4341 4114 3477 3207 3166 2875 2572 2409 2018 1748 1652 994 688 453 375 32 -221 -469 -1043 -926 -1168 -1620 -1848 -2057 -2023 -2393 -2287 -2687 -2940 -3167 -3030 -3233 -3514 -3715 -3795 -3834 -4214 -4095 -4462 -4303 -4349 -4656 -4564 -4788 -4823 -4891 -4536 -4580 -4983 -4817 -5232 -5415 -5261 -5250 -5475 -5320 -5313 -5320 -5348 -5281 -5440 -5396 -5487 -5655 -5354 -5475 -5054 -5109 -5315 -5367 -5453 -5066 -5229 -5001 -5034 -5156 -4744 -4915 -4792 -5002 -5414 -5478 -5463 -5041 -5248 -5180 -4825 -4819 -4827 -4841 -5190 -5028 -5199 -4777 -4941 -4920 -4937 -4971 -4793 -5139 -4842 -4788 -4829 -4863 -5196 -5231 -5018 -5028 -5034 -5010 -5174 -4763 -4764 -4767 -4792 -4762 -4983 -4871 -4548 -4553 -4607 -4599 -4715 -4307 -4479 -4246 -4467 -4420 -4437 -4299 -4307 -4471 -4392 -4378 -4060 -4088 -4394 -4443 -4045 -4209 -4105 -3716 -3954 -3747 -3763 -3914 -3896 -3944 -3962 -3737 -4115 -4217 -3985 -4175 -4100 -3761 -3796 -4129 -3836 -3773 -3938 -3888 -3908 -3929 -3955 -3717 -3736 -3913 -3878 -3938 -3740 -3793 -3725 -3579 -3522 -3580 -3894 -3857 -3553 -3857 -3543 -3573 -3566 -3492 -3510 -3581 -3942 -3753 -3718 -3883 -3553 -3491 -3468 -3489 -3558 -3900 -3782 -4100 -4164 -4179 -3956 -3608 -3030 -2946 -3191 -3340 -3221 -3223 -3405 -3339 -2971 -3074 -2841 -2640 -2288 -2660 -2441 -2682 -2567 -2201 -2201 -2227 -2206 -2213 -2210 -2332 -2058 -1481 -1567 -1409 -1840 -1704 -1872 -1825 -1426 -1179 -945 -1034 -712 -1036 -906 -1399 -1616 -1439 -1664 -1599 -1563 -1249 -1178 -1225 -1499 -2135 -2378 -2035 -2064 -1457 -1407 -1050 -399 -175 -144 -534 -631 -581 -381 125 146 554 617 585 165 -38 4 -132 -547 -815 -1104 -1198 -1918 -2312 -2283 -2468 -3128 -3209 -3245 -3342 -2950 -2986 -3050 -3072 -3341 -3366 -3221 -3230 -3386 -2999 -3123 -2736 -2833 -2532 -2490 -2910 -3121 -2980 -3026 -3057 -3188 -3103 -2998 -3262 -3642 -3302 -3345 -2957 -2977 -3043 -3429 -3699 -3867 -3902 -3867 -3587 -3165 -2454 -2259 -2245 -2614 -2526 -2930 -3125 -3025 -3436 -3430 -2976 -2898 -2486 -2456 -2521 -2908 -3083 -2985 -3060 -3338 -3403 -3320 -3281 -3340 -3106 -2944 -2858 -2696 -2808 -3181 -3103 -2884 -2502 -2585 -2029 -1833 -960 -553 371 744 1641 2307 3076 3693 3999 4990 5863 7489 9255 11002 12724 14117 14581 15312 16422 17203 17712 17378 16619 15325 13924 11758 10083 8348 7443 6246 4238 1800 -1312 -2950 -4287 -5809 -7589 -9532 -10860 -11445 -12071 -12442 -13279 -13952 -13775 -13594 -12848 -11865 -10824 -9384 -8132 -7292 -6324 -5623 -4997 -4556 -4476 -4210 -3764 -3469 -3364 -2898 -2208 -1712 -1619 -1327 -1091 -699 -686 -1091 -983 -1401 -1457 -1790 -2109 -2068 -2127 -1938 -2082 -1757 -1701 -1888 -1506 -1620 -1234 -1370 -1306 -948 -1117 -1077 -1075 -739 -654 -834 -851 -650 -720 -758 -722 -679 -887 -486 -249 -313 103 -100 -93 -107 -126 -106 -79 -92 -89 -9 324 304 288 308 352 163 231 562 406 450 447 466 475 809 879 665 1024 971 1205 1448 1845 1461 1316 837 592 429 755 1310 1223 1547 1605 1644 1539 1371 1375 1258 1638 1652 1558 1357 1331 1378 1341 1324 1296 1383 1455 2132 2401 2585 2663 2603 2416 1973 2122 2104 1924 2336 2595 2901 3177 3455 3682 3693 3680 3521 3582 3869 3894 3842 3504 3850 3824 3987 4432 4247 4370 3994 4074 4231 4646 4501 4652 4714 4533 4881 4767 4842 5138 5192 4993 5399 5464 5442 5271 5716 5893 5935 5798 6192 6037 6044 6048 6069 6246 5859 6268 6721 7205 7535 7347 7482 7129 7176 6909 7170 7183 7074 7383 7619 7975 7670 7606 7653 8007 7864 7931 8261 8240 8212 7917 8047 8059 7896 7921 7926 7920 8201 8307 8307 8260 8200 7887 7971 7764 7412 7378 7544 7303 7364 7504 7253 6835 6654 6609 6605 6761 6316 6046 5965 5708 5454 5009 4788 4558 4300 4066 4100 3675 3341 2733 2630 2355 2151 1702 1563 1098 510 254 284 -318 -397 -881 -1034 -917 -1206 -1416 -2049 -2040 -2418 -2605 -2870 -3091 -2956 -3397 -3622 -3933 -4012 -4337 -4512 -4590 -4899 -4934 -4585 -4720 -4511 -4570 -4778 -5226 -5454 -5703 -5516 -5658 -5257 -5276 -5289 -5303 -5501 -5414 -5385 -5382 -5449 -5351 -5565 -5953 -5799 -6215 -6231 -5852 -5933 -5912 -5922 -5978 -6015 -5785 -5807 -5810 -6185 -6152 -5941 -5575 -5942 -5982 -5891 -5903 -5893 -5584 -5623 -5917 -5956 -5954 -5899 -5606 -5536 -5533 -5537 -5736 -5546 -5626 -5576 -5519 -5721 -5639 -5315 -5356 -5672 -5715 -5716 -5509 -5520 -5752 -5564 -5614 -5605 -5602 -5577 -5582 -5757 -5650 -5330 -5355 -5655 -5352 -5262 -5104 -5236 -5141 -4826 -4815 -5155 -4854 -4987 -4527 -4685 -4331 -4421 -4096 -4455 -4688 -4601 -4962 -4806 -4820 -4754 -4887 -4567 -4515 -4486 -4869 -4812 -5200 -5188 -4952 -4330 -4096 -4355 -4322 -4654 -4314 -4087 -4180 -3722 -3876 -3583 -3931 -3729 -3947 -3864 -3906 -3767 -3958 -3868 -3855 -3898 -3958 -3817 -3828 -3832 -3728 -3933 -3904 -3923 -3717 -3802 -3813 -3719 -3868 -3664 -3609 -3662 -3545 -3904 -3874 -3871 -3569 -3664 -3667 -3533 -3868 -3543 -3658 -3617 -3657 -3699 -3647 -3307 -3252 -3219 -3440 -3391 -3439 -3304 -3615 -3640 -3634 -3300 -3447 -3203 -3283 -3634 -3480 -3549 -3651 -3062 -2920 -2448 -2594 -2214 -2399 -2403 -2187 -2370 -2011 -1932 -2085 -1819 -1224 -1348 -1400 -1631 -1852 -1702 -1862 -1474 -1626 -1590 -1619 -1537 -1392 -952 -1069 -938 -1367 -1176 -1314 -989 -926 -963 -1299 -1263 -1589 -1448 -1611 -1225 -1200 -1024 -1040 -699 -491 -587 -367 -73 196 545 247 175 216 627 840 746 739 810 180 51 -246 -430 -702 -1542 -2138 -2606 -2837 -2851 -2892 -3097 -3385 -3592 -3511 -3543 -3518 -3686 -3426 -3161 -2812 -2727 -2698 -2778 -2776 -2735 -2900 -2833 -2674 -2587 -2566 -2628 -2446 -2439 -2612 -2601 -2601 -2585 -2638 -2442 -2684 -2635 -2566 -2561 -2279 -2238 -2300 -2587 -2616 -2486 -2892 -2730 -2752 -2866 -2531 -2496 -2682 -2456 -2888 -2760 -3095 -3099 -3090 -2739 -2926 -2527 -2686 -2881 -2767 -2917 -2528 -2441 -2610 -2299 -2258 -2213 -2189 -2325 -2031 -2423 -2204 -2036 -2096 -1864 -1609 -958 -499 -258 388 1307 1774 2281 2750 3327 4101 4535 5355 6773 8127 10281 12002 13521 14495 15388 15853 16805 17788 17968 17464 16466 15171 13238 11571 9739 7926 6654 5349 3487 1122 -1542 -3394 -5192 -7025 -9080 -10760 -11689 -12492 -13376 -13811 -14238 -14631 -14023 -13575 -12566 -11156 -10241 -9003 -7963 -7029 -6180 -5490 -4886 -4442 -3770 -3687 -2987 -2817 -2177 -1679 -1314 -492 -347 27 -314 -205 -598 -443 -776 -894 -1068 -958 -1165 -1235 -1554 -1601 -1558 -1543 -1374 -1086 -483 -550 -138 -378 -525 -427 -576 -310 -280 -137 -191 -256 -569 -527 -134 2 -87 265 288 366 196 201 226 537 629 392 574 542 428 863 720 663 483 628 469 800 806 451 432 496 815 853 874 687 1063 918 940 986 990 965 916 1144 918 1299 1214 1647 1510 1523 1473 1638 1608 1409 1463 1440 1479 1519 1504 1482 1417 1612 1566 1647 1529 1791 1983 2328 2358 2353 2368 2427 2236 2571 2617 2504 2689 2798 3115 3163 3019 3346 3387 3351 3353 3415 3417 3436 3230 3668 3897 3764 4106 3970 4386 4265 4419 4092 4372 4415 4472 4676 4847 5056 5232 4839 4931 4889 4882 4951 4972 4918 4965 4861 5043 5401 5286 5329 5706 5604 5996 6215 6024 6044 6082 6434 6282 6697 6752 6606 6977 6794 6851 6904 7073 7111 7151 7513 7371 7737 7572 7585 7592 7675 8050 7880 8278 8448 8547 8536 8469 8173 8449 8448 8092 8076 8070 8231 8234 8292 8483 8408 8789 8602 8822 8748 8356 8544 8527 8376 8440 8726 8419 8443 8356 8530 8521 8162 7934 7672 7374 7165 7189 6577 6278 6112 6270 5792 5728 5385 4846 4576 4314 4061 4116 3853 3230 3110 2538 2222 2135 1817 1272 903 890 567 -19 -275 -256 -796 -716 -1105 -974 -1390 -1236 -1417 -1744 -2225 -2834 -2710 -2755 -3161 -3359 -3452 -3454 -3258 -3595 -3509 -3756 -4093 -4633 -4882 -4991 -4813 -5128 -5129 -5153 -5234 -5242 -5232 -4996 -5161 -5135 -5230 -5048 -5039 -5208 -5178 -5168 -5017 -5112 -5428 -5265 -5319 -5333 -5324 -5323 -5685 -5615 -5984 -5789 -5867 -6170 -6156 -5808 -5916 -5523 -5676 -5368 -5695 -5560 -5932 -5936 -5601 -5589 -5566 -5615 -5917 -5918 -5527 -5345 -5297 -5270 -5468 -5062 -5211 -5153 -5141 -5151 -5211 -5223 -4825 -4895 -4569 -4493 -4733 -4491 -4495 -4709 -4681 -4663 -4671 -4672 -4731 -4571 -4913 -4766 -4814 -4821 -4760 -4894 -4520 -4507 -4605 -4898 -4603 -4695 -4659 -4352 -4282 -4274 -4334 -4323 -4231 -4250 -4276 -4289 -4473 -4077 -3991 -4185 -4198 -3996 -4357 -4367 -4063 -3982 -4119 -3739 -3778 -3767 -4130 -4030 -4214 -4124 -4131 -3833 -3942 -3566 -3619 -3396 -3417 -3289 -3645 -3500 -3682 -3232 -3400 -3349 -2949 -2984 -3047 -2952 -3081 -3095 -3103 -3006 -3398 -3451 -3238 -3244 -3406 -3388 -3267 -3280 -3445 -3386 -3031 -3332 -3432 -3212 -3453 -3426 -3051 -2966 -3191 -2957 -3068 -3218 -3271 -3291 -3227 -3379 -2976 -3137 -3107 -3104 -3083 -2790 -2770 -2750 -2930 -2900 -2699 -2764 -2882 -2629 -2238 -2335 -2052 -1502 -1261 -1306 -944 -1119 -928 -1341 -1179 -1217 -1198 -1284 -1050 -838 -801 -650 -741 -1082 -756 -811 -505 -803 -800 -400 -583 -522 -215 -143 -341 -346 -375 -144 -513 -518 -239 -530 -520 -556 -590 -602 -415 -236 -140 14 -2 218 636 502 822 718 1137 1005 1258 1650 1457 1653 1219 1383 955 700 786 532 349 47 -422 -1151 -1249 -1454 -1920 -2084 -1954 -2345 -2213 -2295 -2275 -2411 -2349 -2029 -1990 -2019 -2029 -1995 -2305 -2356 -2374 -2378 -2336 -2218 -2249 -2237 -2248 -2345 -2000 -2168 -2051 -2051 -2075 -1994 -2180 -2243 -2201 -2316 -1958 -1946 -2019 -1969 -1944 -1969 -1931 -2176 -1923 -2328 -2219 -2427 -2360 -1997 -2148 -2070 -1917 -1875 -1715 -2065 -1759 -1908 -1829 -1441 -1581 -1211 -1186 -1249 -1572 -1558 -1275 -1609 -1907 -2142 -1923 -2126 -1884 -1867 -1904 -1509 -1566 -1338 -898 -696 -599 -3 704 1887 2542 3585 4056 4886 5257 6098 7121 8804 10752 12737 14928 16010 16967 17289 18175 19296 19347 19324 18112 16846 15351 13444 11576 9748 8296 6582 4604 1999 -242 -2417 -3804 -5794 -8540 -10175 -11394 -12569 -13316 -13819 -14634 -14880 -14604 -13896 -12681 -11856 -10433 -9192 -8197 -7039 -5953 -5141 -4477 -3754 -3623 -2794 -2222 -2071 -1831 -1255 -900 -413 46 343 246 558 512 334 52 -219 -561 -769 -921 -1212 -1221 -1336 -1126 -1112 -1030 -660 -816 -462 -596 -216 -149 -384 -361 -317 -297 6 3 -369 -458 -1102 -933 -650 -189 -31 188 623 771 680 1109 1110 760 718 688 888 730 1084 907 1280 1349 1156 1176 1561 1410 1458 1528 1506 1581 1324 1352 1606 1862 1789 2157 1935 2165 2117 1936 2023 2314 2012 1952 2071 1773 2142 2322 2400 2354 2419 2447 2547 2552 2820 2457 2212 2333 2418 2204 2294 2500 2815 3347 3282 3589 3231 3351 3345 3069 3424 3325 3507 3961 4098 4199 4069 4429 4382 3990 4074 4450 4405 4035 3981 4378 4294 4250 4468 4617 4534 4889 4897 4868 4715 4478 4059 4406 4701 4829 5403 5364 5489 5091 5501 5345 5462 5069 5447 5671 5614 5862 6120 6436 6474 6660 6606 6613 6547 6551 6637 7022 6888 7214 7096 7519 7507 7148 7044 7198 7192 7060 7517 7694 7661 8062 7834 8009 7985 8042 7834 7911 8264 8311 8202 7892 8084 8484 8157 8085 8286 8279 8181 8566 8354 8557 8474 8185 8563 8410 8744 8699 8836 9011 8589 8386 8480 8268 7903 8232 8166 8557 8541 8160 8066 7860 7583 7431 6832 6537 6378 6374 6346 6420 5791 5360 5119 5190 4755 4981 4953 4488 4458 3826 3689 2984 2531 2370 2149 2096 1910 1547 955 760 892 592 101 -388 -1075 -1185 -1664 -1744 -2366 -2303 -2656 -2509 -2850 -2793 -3359 -3486 -3870 -3573 -3889 -3949 -3920 -3745 -3781 -3802 -4216 -4282 -4590 -4755 -4990 -4557 -4713 -4547 -4808 -4993 -5073 -5176 -5156 -5231 -5404 -5422 -5085 -5065 -5003 -5018 -5428 -5307 -5317 -5503 -5391 -5059 -5046 -4996 -4998 -5099 -5380 -5260 -5358 -5443 -5488 -5481 -5407 -5268 -5694 -5736 -5650 -5414 -5246 -5215 -5211 -5150 -5179 -5205 -4753 -4992 -4810 -4864 -4852 -4974 -4737 -4859 -5182 -5019 -4999 -4847 -4884 -4507 -4485 -4547 -4551 -4553 -4497 -4637 -4319 -4272 -4418 -4443 -4251 -4653 -4698 -4342 -4067 -3815 -3875 -3473 -3504 -3761 -4108 -4073 -4674 -4734 -4624 -4295 -4420 -4210 -3840 -4100 -3779 -3751 -4007 -4443 -4392 -4202 -3815 -3836 -4120 -3713 -3552 -3508 -3865 -3794 -3718 -3491 -3674 -3658 -3324 -3276 -3227 -3432 -3025 -3177 -2945 -3116 -2997 -3384 -3346 -3351 -3004 -3181 -2980 -3187 -3175 -2742 -2817 -2905 -2805 -3338 -3213 -3067 -2812 -2715 -2780 -3099 -2812 -2710 -2747 -2784 -3120 -3042 -3232 -3699 -3677 -3377 -3084 -2709 -2878 -2867 -2904 -2728 -2809 -3114 -3113 -3073 -2858 -2513 -2533 -2876 -2875 -2836 -2516 -2632 -2303 -2285 -2425 -2340 -2312 -2003 -1933 -2134 -1885 -1428 -1583 -1589 -1590 -1580 -1266 -1396 -974 -1108 -720 -736 -958 -1245 -1656 -1465 -1261 -1007 -903 -1053 -653 -504 -616 -586 -863 -1095 -1326 -1201 -1315 -925 -1076 -757 -728 -889 -786 -774 -859 -717 -942 -909 -619 -60 188 589 456 811 703 1347 1485 1672 1665 1424 1022 869 821 488 611 252 -77 -548 -1146 -1648 -1722 -2009 -2582 -2851 -2749 -3109 -3118 -2944 -2846 -2642 -2213 -2267 -2641 -2252 -2395 -2400 -1934 -1714 -1511 -1424 -1447 -1462 -1612 -1232 -1217 -1577 -1471 -2057 -2306 -2313 -2083 -1440 -1204 -1542 -1850 -1755 -1745 -2082 -2115 -2157 -1691 -1671 -2082 -2039 -2200 -2228 -1958 -2111 -2170 -2032 -2361 -2397 -2315 -2123 -1783 -1743 -1699 -1898 -1534 -1593 -1251 -1250 -1167 -1214 -1240 -1258 -1641 -1600 -1641 -1642 -1437 -1663 -1175 -1002 -1367 -1244 -1277 -1402 -1075 -787 -138 194 1023 1695 2681 3279 4395 4782 5690 6071 7088 8618 10413 12642 14530 16149 16629 17507 18274 19243 19830 19776 18999 17656 16307 14830 13169 11523 9898 8823 6629 3815 1372 -925 -2802 -4640 -6284 -8154 -9770 -10607 -11151 -12297 -12781 -13399 -13338 -12932 -12550 -11532 -10245 -9025 -7564 -6355 -5434 -4714 -4116 -3068 -2627 -1783 -1863 -1428 -1357 -505 31 178 395 651 1020 1218 1272 1361 993 744 626 347 -38 -85 -120 33 -76 257 189 161 140 581 452 806 753 734 648 690 750 662 869 657 969 1366 958 875 426 439 873 1122 1363 1539 1625 1628 1433 1721 1989 2407 2386 1779 1849 1633 1153 1350 1218 1625 1450 1825 1914 1900 1822 1514 1849 1818 1811 1428 1259 1610 1846 1867 1808 1905 1947 2281 2746 3376 3052 2810 2552 2635 2619 2542 2890 2767 3375 3300 3614 3603 3220 3393 3355 2993 3021 3340 3236 3640 3663 3524 3512 3603 3677 3590 3601 3467 3896 3775 4140 4169 4101 4007 4364 4091 4064 4044 4394 4314 4245 4467 4243 4612 4635 4637 4551 4751 4863 4772 4804 5145 5422 5653 5908 5927 5947 6147 5815 5596 5636 5325 5325 5301 5504 6013 6187 6077 6456 6463 6413 6441 6461 6421 6253 6154 5874 5871 6241 6286 7021 7206 7054 7259 7208 6825 6928 6921 6873 7147 7682 7665 7623 7736 7379 7394 7381 7736 7789 7782 7709 7570 7886 8498 8714 8754 8333 8096 7844 7641 7733 7784 8057 8283 8484 8355 8349 8536 8081 7834 8045 7893 7888 8031 7982 7671 7593 7619 7668 7572 7550 7190 6632 6692 6352 6361 6694 6290 6198 5631 5350 4999 4978 4712 4402 3728 3389 2922 2462 2599 2263 2392 2309 2172 1670 1639 1153 921 864 201 289 67 -247 -496 -776 -642 -992 -1655 -1852 -1877 -1798 -1707 -2404 -2895 -3230 -3769 -4010 -4215 -3719 -3692 -3642 -3562 -3949 -3534 -3704 -3852 -3832 -4018 -4042 -4030 -4465 -4300 -4230 -4477 -4303 -4291 -4388 -4469 -4296 -4264 -4358 -4376 -4383 -4093 -4413 -4299 -4713 -4681 -4314 -4230 -4234 -4629 -4594 -4947 -4574 -4334 -4241 -4278 -4322 -4621 -4728 -4948 -5136 -5204 -5239 -5216 -5223 -4758 -4538 -4727 -4628 -4249 -4365 -4014 -4036 -4324 -4584 -4915 -4944 -4925 -4596 -4520 -4695 -4626 -4318 -4391 -4355 -4381 -4399 -4080 -4061 -4055 -3982 -3816 -3550 -3867 -3952 -3962 -3851 -3525 -3854 -3922 -3749 -4124 -3962 -3514 -3655 -3617 -3255 -3398 -3437 -3263 -3419 -2998 -3156 -3118 -2779 -3100 -3152 -2775 -2763 -3160 -2974 -2766 -2507 -2459 -2507 -2508 -2540 -2523 -2858 -2713 -2749 -3141 -2754 -2927 -2918 -2770 -3120 -2742 -2915 -2532 -2494 -2674 -2437 -2505 -2448 -2661 -2886 -3181 -3056 -3068 -3124 -2711 -2747 -2756 -3167 -3027 -3151 -2725 -2837 -2897 -2762 -2807 -2792 -2775 -2761 -2768 -3099 -2722 -2528 -2510 -2850 -2511 -2673 -2582 -2180 -2368 -2312 -2309 -2309 -2398 -2262 -2286 -2572 -2247 -2005 -2063 -1915 -1734 -2095 -2102 -2103 -2085 -1891 -1469 -1608 -1269 -1231 -1400 -1359 -1372 -1407 -1205 -1238 -1386 -1144 -857 -386 -449 -864 -726 -1144 -1004 -924 -690 -437 -414 -448 -822 -1025 -1077 -1042 -680 -664 -1149 -1330 -1148 -861 -178 -90 327 340 258 -75 -21 301 331 130 380 146 187 370 359 283 -98 -334 -873 -1173 -1699 -2368 -2222 -2184 -2346 -2019 -2306 -2570 -2876 -2723 -3087 -3186 -3085 -2825 -2629 -2281 -2244 -2244 -2215 -2210 -2194 -2189 -2577 -2448 -2493 -2680 -2240 -2189 -2209 -2201 -2365 -2402 -2563 -2587 -2631 -2500 -2826 -2870 -2894 -2519 -2625 -2194 -2350 -2412 -2187 -2401 -2181 -2182 -2235 -2612 -2595 -2232 -2395 -2335 -1958 -2159 -2025 -2426 -2278 -2271 -2418 -1998 -2084 -1891 -1536 -1684 -2160 -2006 -2038 -1954 -2148 -2088 -2079 -2123 -1755 -1843 -1441 -1259 -1116 -527 228 1347 2082 2534 3350 3581 4358 4817 5631 6985 8453 9919 12052 13479 14901 15303 16062 17244 17639 18258 17859 17427 16089 14891 13148 10983 9443 8534 7080 5639 2689 90 -2372 -3727 -5445 -6995 -8172 -9205 -9910 -10483 -11411 -12455 -13378 -13237 -13126 -12247 -11616 -10567 -9554 -8460 -7457 -6525 -5729 -4856 -4318 -4126 -3570 -3297 -3390 -3166 -2827 -2029 -1449 -1020 -881 -633 -406 -590 -599 -634 -855 -1141 -1408 -1617 -1893 -1681 -1668 -1859 -1847 -1653 -1251 -1404 -1164 -1386 -938 -827 -543 -137 -373 -225 -546 -518 -538 -413 -859 -711 -718 -834 -616 -142 38 -66 282 255 423 464 447 505 851 835 819 716 1018 1197 1165 1333 954 679 825 803 713 941 1347 1232 1489 1746 1975 2312 2013 1954 1966 2329 2353 2013 1940 1942 2027 2320 2325 2337 1999 2066 1708 1752 1706 1674 1720 1747 1682 1709 2063 2140 2001 2184 2622 2624 2254 2237 2239 2658 2525 2739 3120 2958 3015 3182 2809 2743 2772 2746 2772 3164 3349 3439 3390 3371 3347 2989 2992 3415 3652 3917 3759 3764 3940 3468 3623 3466 3880 3775 4116 4055 4268 4296 4658 4546 4962 4602 4551 4901 4790 5145 4853 5227 5387 5469 5276 5481 5485 5322 5701 5903 5994 5870 6193 6168 6189 6050 6498 6299 6394 6589 7008 6881 6887 6891 7230 7268 7218 7212 6886 7169 7264 7081 7166 7488 7540 7494 7535 7765 7588 7788 7702 7341 7473 7130 7166 7452 7469 7354 7736 7587 7623 7805 7407 7345 7329 7495 7490 7488 7086 7235 7194 6901 7193 7047 7294 7206 7031 6720 6494 6263 5926 5665 5382 4850 4534 4630 4248 4018 3963 3656 2957 2923 2663 2334 1732 1543 1003 1133 708 607 292 43 -176 -493 -752 -974 -1184 -1449 -1723 -2134 -1988 -2192 -2455 -2718 -3023 -3314 -3511 -3884 -3735 -4140 -4220 -3989 -4027 -4230 -4908 -5164 -5197 -5132 -5126 -4996 -5049 -5047 -5077 -5093 -5084 -5489 -5635 -5640 -5343 -5634 -5651 -5758 -5525 -5525 -5896 -5927 -5560 -5594 -5966 -6254 -6425 -6060 -5840 -5624 -5736 -5339 -5670 -5578 -5953 -5802 -5851 -6011 -5585 -5743 -5754 -5529 -5526 -5568 -5754 -5668 -5336 -5645 -5690 -5513 -5734 -5652 -5701 -5751 -5736 -5358 -5275 -5488 -5394 -5240 -5149 -5139 -5131 -4817 -4962 -4598 -4553 -4553 -4517 -4733 -4724 -4540 -4902 -4924 -4572 -4716 -4638 -4627 -4643 -4703 -4483 -4732 -4654 -4255 -4430 -4475 -4336 -4642 -4627 -4338 -4308 -4286 -4231 -4408 -4358 -4057 -3984 -4006 -4016 -4179 -3799 -3723 -3942 -3726 -3889 -3936 -3851 -3508 -3861 -3788 -3817 -3791 -3921 -3488 -3432 -3349 -3338 -3448 -3223 -3599 -3620 -3667 -3543 -3949 -3891 -3878 -3702 -3634 -3266 -3280 -3254 -3314 -3589 -3618 -3600 -3677 -3615 -3491 -3542 -3481 -3312 -3263 -3234 -3264 -3252 -3634 -3670 -3590 -3399 -3053 -3172 -3123 -2716 -2740 -2935 -2846 -2491 -2516 -2528 -2504 -2640 -2300 -2177 -2330 -1969 -2059 -1667 -1839 -1698 -1970 -2034 -2035 -2047 -2021 -1980 -2116 -1673 -1812 -1487 -1520 -1882 -1686 -1898 -1814 -1652 -1245 -1381 -1335 -1283 -1143 -761 -705 -751 -740 -1070 -906 -960 -993 -1011 -1312 -1348 -1012 -1130 -1059 -1099 -1119 -1039 -811 -530 -190 -586 -558 -573 -564 41 529 666 755 710 464 345 -292 -564 -631 -613 -474 -687 -1315 -1471 -1731 -2091 -2006 -2259 -2557 -2754 -2779 -2781 -2757 -2838 -2618 -2181 -2418 -2203 -2376 -2037 -1977 -1975 -1942 -1941 -2123 -2145 -2159 -2015 -2388 -2197 -2245 -2669 -2634 -2603 -2585 -2633 -2487 -2891 -2909 -2557 -2535 -2487 -2498 -2439 -2439 -2562 -2563 -2265 -2563 -2270 -2608 -2587 -2607 -2438 -2867 -2689 -2932 -2484 -2610 -2241 -2182 -2231 -2239 -2227 -2238 -2262 -2403 -2328 -1966 -2020 -2410 -2232 -2177 -2353 -2315 -2403 -2204 -2190 -1944 -1901 -1423 -1399 -696 -166 176 941 1916 2246 2735 3269 3988 5215 6089 7751 9142 11324 12958 14324 15403 15791 16600 17757 18061 18266 17751 16735 15035 13595 11476 9869 8800 7530 5525 3345 589 -1670 -3689 -5387 -6868 -9019 -10510 -11580 -12297 -12752 -13472 -14144 -14184 -13476 -12675 -11866 -10599 -9283 -8026 -6969 -5848 -5439 -4900 -4076 -3479 -3066 -2757 -2647 -2014 -1872 -1183 -713 -622 -144 -360 -531 -456 -781 -647 -1119 -1399 -1653 -1804 -1874 -1917 -1681 -1824 -1420 -1248 -1009 -754 -849 -862 -862 -819 -772 -482 -812 -853 -783 -789 -456 -554 -231 -528 -590 -435 -459 -619 -377 -75 188 255 205 236 514 524 564 632 458 797 866 870 816 818 814 812 830 669 714 1043 1148 969 1326 1316 911 1087 1144 1319 1385 1302 1350 1559 1449 1522 1858 1676 1711 1916 1686 1763 2117 2304 2266 2444 2531 2852 2550 2677 2292 2234 2274 2291 2622 2687 2442 2647 2574 2271 2584 2439 2540 2838 2907 2783 2946 3380 3260 3603 3614 3299 3594 3690 3541 3967 3796 3787 3939 3851 3844 3884 3751 4099 3814 3808 4137 4216 4091 4462 4269 4289 4294 4634 4544 4589 4893 4941 4842 5199 5006 5092 5458 5275 5647 5659 5526 5933 6003 5940 5982 5780 6180 5887 5835 6032 6382 6768 6535 6721 6736 6739 6613 6998 7031 6992 6825 7229 7062 7136 7453 7309 7421 7794 7621 7977 7629 7663 7957 7847 8094 8509 8526 8564 8329 8574 8350 8792 8627 8667 8593 8761 8380 8552 8459 8504 8569 8343 8521 8135 8069 7869 8001 7636 7787 7707 7508 7257 6971 6576 6538 6373 6047 5621 5473 5222 4776 4932 4925 4885 4704 4082 3750 3505 3212 3143 2930 2478 2189 2069 1447 1392 1149 713 500 208 -115 -369 -635 -757 -1238 -1825 -2142 -2412 -2687 -2705 -3161 -3376 -3680 -3889 -3721 -3782 -3781 -4204 -4436 -4710 -4929 -4800 -4823 -4776 -4737 -4762 -4846 -5189 -5151 -5164 -5191 -5243 -5003 -5228 -5051 -5086 -5400 -5260 -5285 -5262 -5654 -5592 -5921 -5575 -5712 -5643 -5673 -5742 -5600 -5613 -5573 -5534 -5736 -5634 -5665 -5565 -5942 -5580 -5361 -5461 -5406 -5418 -5464 -5470 -5486 -5458 -5454 -5348 -5329 -5330 -5640 -5350 -5458 -5094 -4995 -5206 -5208 -5010 -5074 -5090 -5396 -5417 -5108 -5228 -4863 -4779 -4741 -4796 -4832 -4802 -4788 -4769 -4750 -4755 -4986 -4942 -4593 -4531 -4526 -4580 -4899 -4912 -4930 -4984 -4959 -4875 -4532 -4497 -4719 -4700 -4646 -4292 -4287 -4334 -4323 -4330 -4322 -4420 -4073 -4047 -4095 -4376 -4402 -4472 -4460 -4449 -4228 -4227 -4378 -4218 -4125 -4212 -3975 -4039 -4367 -4363 -4056 -4172 -4128 -4173 -3988 -3982 -4215 -4166 -3824 -3734 -3923 -3929 -3796 -3984 -4005 -4050 -4418 -4382 -4058 -3999 -3975 -4220 -4153 -4115 -4106 -4119 -3839 -4133 -4162 -4131 -3802 -3957 -3872 -3583 -3557 -3856 -3880 -3851 -3855 -3863 -3884 -3866 -3570 -3577 -3529 -3477 -3667 -3323 -3265 -3450 -3330 -3186 -2724 -2507 -2643 -2283 -2257 -2599 -2479 -2543 -2820 -2684 -2382 -1784 -1690 -1777 -1927 -2314 -2317 -1961 -2117 -2068 -2057 -2076 -2056 -1706 -1824 -1429 -1633 -1537 -1173 -1393 -1168 -1406 -1385 -1361 -1173 -1557 -1425 -1648 -1578 -1240 -1185 -1347 -1018 -1020 -1011 -1008 -915 -1083 -1042 -894 -243 -65 221 226 190 156 331 -87 -335 -614 -827 -1098 -1401 -1415 -1816 -1726 -2113 -1946 -2415 -2644 -2533 -2835 -2697 -2773 -2762 -2820 -2265 -2408 -2415 -2574 -2654 -2235 -2344 -2027 -1942 -2128 -1926 -2011 -2045 -2417 -2289 -2479 -2750 -3132 -3136 -2795 -2798 -2703 -2708 -2852 -2485 -2654 -2477 -2494 -2492 -2476 -2834 -2857 -2487 -2625 -2233 -2255 -2644 -2536 -2828 -2844 -2694 -2792 -2767 -2723 -2897 -2558 -2883 -2769 -2720 -2520 -2615 -2620 -2490 -2559 -2844 -2509 -2608 -2250 -2224 -2191 -2325 -1956 -2107 -1914 -1431 -1353 -643 -368 556 981 1911 2616 3331 3884 4408 4999 6401 7785 9341 10994 13103 14251 15362 15840 16808 17894 18788 18751 17852 16981 15331 13535 11796 10058 8523 6978 5073 3042 649 -1237 -3072 -5148 -7073 -9545 -10959 -12030 -12784 -13567 -14326 -14927 -14585 -14049 -13363 -11918 -10680 -9747 -8329 -7518 -6351 -5508 -4790 -4413 -3945 -3240 -2793 -2256 -1700 -1153 -891 -148 -53 163 598 404 516 294 51 -194 -452 -876 -749 -1106 -909 -910 -1135 -1119 -1100 -1043 -861 -396 -236 -326 57 -102 -123 -304 -190 -217 -187 -357 26 -103 -90 110 -119 -90 -56 278 345 213 612 427 833 666 709 726 765 1123 926 1133 1071 1135 904 939 925 969 986 954 944 1010 1329 1374 1171 1243 1577 1432 1654 1409 1495 1824 1874 1903 1870 1806 1884 2085 1950 2022 2416 2226 2185 2391 2034 2040 2026 2047 2183 2260 2660 2864 2771 2731 2919 2865 2822 2823 2889 2721 3123 3047 3375 3428 3213 3243 3280 3595 3708 3471 3668 3634 3475 3899 3816 3968 4474 4349 4251 4060 4035 4045 4391 4609 4923 4754 4752 4829 5237 5104 5441 5281 5671 5594 5890 5911 5938 5997 6004 5805 5847 6023 6407 6486 6282 6272 6490 6075 6260 6029 6407 6521 6662 6560 6944 6869 7224 7052 7292 7092 7159 7524 7683 7552 7993 8233 8164 8457 8454 8189 8469 8527 8392 8786 8620 8694 9017 8674 8606 8602 8822 8801 8649 8904 9292 9147 9193 9152 9310 9250 8936 8884 8873 8922 8946 9247 9274 9241 8951 8899 8835 8983 8592 8727 8355 8469 8276 8026 7570 7390 7488 7105 7083 7190 6922 6396 6407 6004 5356 5244 4548 4423 4145 3751 3938 3536 3279 3140 2651 1982 1880 1272 976 729 470 554 145 -60 -314 -538 -507 -709 -914 -1250 -1472 -1771 -2182 -2598 -2570 -2668 -2903 -3118 -3343 -3308 -3892 -3793 -3772 -3762 -4188 -4467 -4551 -5194 -5479 -5311 -5398 -5045 -5243 -5213 -4824 -4818 -5202 -5036 -5084 -5024 -4805 -4804 -4803 -4891 -4656 -4619 -4662 -4625 -4684 -4914 -5122 -5135 -5172 -5223 -5128 -4738 -4884 -4588 -4906 -4960 -4937 -4600 -4579 -4574 -4525 -4555 -4868 -4950 -4964 -4529 -4334 -4416 -4388 -4381 -4316 -4609 -4685 -4484 -4727 -4486 -4683 -4528 -4583 -4929 -4967 -4934 -4515 -4341 -4269 -4256 -4451 -4354 -4054 -4063 -4361 -4246 -4245 -4075 -4133 -4142 -3990 -4067 -4088 -4018 -4102 -3830 -4152 -4130 -4130 -4223 -4199 -4177 -4040 -4259 -4489 -4727 -4262 -4407 -4047 -4214 -4172 -4170 -4054 -4378 -4074 -4051 -3969 -4099 -3811 -4107 -3734 -3891 -3558 -3633 -3318 -3489 -3572 -3557 -3472 -3635 -3651 -3489 -3577 -3531 -3468 -3463 -3893 -3826 -4187 -4173 -4217 -4168 -3715 -3643 -3385 -3355 -3363 -3383 -3346 -3386 -3443 -3220 -3444 -3267 -3247 -2995 -2744 -2918 -2922 -2937 -2884 -2899 -2771 -2754 -2939 -2877 -2846 -2529 -2678 -2820 -2808 -3197 -3142 -2897 -2254 -2161 -1894 -1460 -1613 -1552 -1545 -1556 -1802 -1908 -1752 -2141 -2084 -1673 -1676 -1862 -1474 -1267 -1235 -1589 -1877 -1866 -1837 -1478 -1802 -1472 -1632 -1248 -1566 -1577 -1212 -1010 -1129 -1130 -941 -956 -970 -1337 -1181 -1270 -1664 -1811 -1810 -1472 -1270 -1327 -912 -1115 -1093 -824 -533 -311 11 -277 -282 -34 636 1030 997 1011 1037 493 203 -120 -279 -530 -652 -1167 -1870 -2111 -2020 -2316 -2328 -2200 -2594 -2453 -2870 -2712 -3107 -3123 -2700 -2828 -2682 -2671 -2543 -2721 -2835 -2180 -1956 -1968 -2425 -2482 -2939 -2782 -3122 -2769 -2705 -3078 -2961 -3083 -2897 -2444 -2273 -2182 -2288 -2621 -2610 -2236 -2198 -2365 -2308 -2338 -2020 -2171 -1978 -2013 -1977 -2039 -1989 -2085 -1768 -2316 -2606 -2434 -2623 -2625 -2255 -2356 -2361 -2330 -1922 -2167 -2025 -2306 -1975 -2176 -2366 -2269 -2298 -2337 -1986 -2174 -1997 -1928 -1765 -1810 -1255 -1011 -1141 -812 91 815 1822 2632 3380 3739 4324 5040 5823 6951 8249 10107 11986 14047 15710 16261 17134 18504 19545 19939 19885 19489 18123 16715 14636 12569 10701 9542 7821 6247 3470 724 -1263 -3397 -5244 -7373 -9811 -11137 -12372 -13094 -13874 -14396 -14662 -14684 -13996 -13404 -11947 -10706 -9634 -8825 -7387 -6484 -5455 -4283 -3562 -2997 -2880 -2484 -2579 -1935 -1662 -1010 -677 -594 -274 41 65 13 -204 -506 -1045 -1299 -1183 -1581 -1652 -1515 -1441 -1265 -1159 -1303 -1128 -851 -454 -531 -316 99 -35 150 577 529 159 276 273 -17 284 594 841 891 634 163 -4 147 770 703 1046 655 748 1019 1189 1630 1257 1312 960 953 1013 973 990 1310 900 899 1022 1308 1395 1199 1250 1417 1650 1444 1615 1583 1638 1551 1548 1564 1253 1347 1306 1246 1820 1725 1772 2175 2310 1946 2022 2251 2678 2539 2487 2644 2634 2303 2193 2239 2585 2616 2480 2688 3165 3061 3046 3024 3263 3621 3301 3228 3233 3590 3682 3703 3523 3561 3719 4132 4050 4262 4286 4031 3835 3798 4114 3981 4052 4365 4376 4020 3974 4017 4253 4555 4789 4816 4792 4805 5166 5039 5119 5313 5547 5953 5781 5839 6145 6031 6438 6476 6419 6493 6352 6713 6548 6630 7012 6852 6904 6854 6803 6625 6766 6590 6992 6869 7041 7128 7349 7730 7421 7681 7690 7692 7576 7980 7986 7953 7985 7831 8192 8110 8155 8144 8162 8265 7910 8280 8347 8606 8697 8979 8674 8366 8214 8002 7848 8236 8461 8433 8594 8639 8641 8399 8148 8260 7912 7911 8059 7939 7421 7113 7185 6816 7028 7014 7004 6980 6544 6505 6174 5630 5410 4910 4316 4267 4248 4060 4113 3922 3704 3205 3117 2661 1973 1915 1597 970 662 823 773 183 -381 -791 -755 -1118 -1148 -1296 -1220 -1837 -2005 -2639 -2874 -2920 -2939 -2715 -3134 -3064 -3235 -3281 -3221 -3233 -3649 -3858 -4103 -4241 -4550 -4917 -4945 -4974 -4879 -4598 -4495 -4463 -4061 -4326 -4969 -5241 -5026 -5170 -5172 -5087 -5258 -5504 -5042 -5174 -4859 -5128 -5169 -5035 -5416 -5478 -5500 -5430 -5498 -5321 -5392 -5121 -4979 -4762 -5133 -5131 -4811 -4983 -4985 -4939 -4587 -4724 -4489 -4722 -4660 -4641 -4688 -4701 -4716 -4531 -4920 -4910 -4527 -4342 -4092 -4001 -4008 -4058 -4384 -4395 -4388 -4051 -4040 -4161 -3763 -3932 -3959 -3807 -3797 -4128 -4035 -4478 -4327 -4285 -4234 -4184 -3789 -4025 -4248 -4290 -4455 -4040 -3822 -3913 -3874 -3850 -3933 -3959 -3931 -3754 -3724 -3579 -3652 -3357 -3170 -3172 -3039 -3285 -3475 -3697 -3686 -3663 -3482 -3890 -3498 -3285 -3279 -3623 -3643 -3644 -3665 -3876 -3760 -3855 -3622 -3352 -3033 -3343 -3213 -3349 -2972 -2958 -3368 -3279 -3640 -3320 -3346 -2765 -2721 -3167 -3276 -3485 -3683 -3207 -3015 -3146 -2961 -3391 -3426 -3397 -3454 -3065 -3007 -3064 -3023 -3157 -2814 -2963 -3040 -3161 -2741 -2916 -2889 -2804 -2988 -2966 -3151 -3094 -3177 -3330 -2971 -2715 -2449 -2408 -2081 -1830 -1816 -2061 -2012 -1936 -1734 -1683 -1889 -1441 -1268 -1221 -1181 -1237 -1604 -1489 -1861 -1799 -1555 -1405 -1253 -1224 -1354 -1006 -924 -1047 -1085 -929 -1394 -1379 -940 -1010 -1230 -1436 -1659 -1268 -1305 -1067 -1042 -965 -1407 -1396 -1019 -1037 -829 -234 121 272 332 181 615 470 490 772 466 562 383 -4 -66 72 -403 -1012 -1414 -1703 -2135 -2331 -2226 -2241 -2688 -2876 -2919 -2890 -2849 -2892 -2726 -3094 -2789 -2931 -2440 -2244 -2424 -2387 -2188 -2244 -2196 -2391 -2383 -2430 -2219 -2224 -2286 -2242 -2427 -2324 -1950 -2045 -2199 -2251 -2413 -2424 -2378 -2165 -2117 -1977 -2398 -2245 -2301 -2648 -2464 -2454 -2657 -2221 -1999 -1929 -2181 -2532 -2727 -2908 -2687 -2208 -1999 -2136 -1969 -2025 -1966 -2039 -2353 -1969 -2150 -2318 -2303 -2632 -2613 -2290 -2416 -2129 -1731 -2055 -1788 -1916 -1809 -1444 -1324 -773 127 835 1273 1939 2553 3444 3765 4711 5638 7009 8422 10366 12155 13846 15104 15971 16742 17730 18745 19504 19541 18747 17281 15993 14115 11967 10547 9267 7958 6010 2968 551 -1455 -3235 -4859 -7013 -8440 -9855 -10418 -11160 -12312 -12760 -13017 -12997 -12867 -11775 -11030 -9995 -8981 -8018 -6790 -6180 -5109 -4509 -4474 -4208 -3882 -3257 -2753 -2193 -1669 -1599 -1282 -715 -399 -304 -3 305 -82 84 115 6 -378 -150 -364 -153 -516 -404 -469 -469 -837 -663 -870 -404 -378 -97 285 -94 -332 -522 -551 -186 -303 -278 -370 -419 -796 -784 -551 -210 -338 -181 -264 -52 215 626 812 773 465 219 147 198 539 610 508 796 836 889 649 677 1085 1281 1295 1338 1393 1213 1264 1245 1195 1577 1436 1825 1903 1918 1699 2061 1784 2107 2132 2083 2127 2174 2175 1960 1953 1921 1950 2336 2389 1996 2115 2090 2139 2030 2354 2426 2289 2653 2506 2527 2511 2503 2450 2464 2545 2942 3147 2982 2997 3395 3631 3688 3649 3587 3266 3298 3610 3602 3587 3600 3628 3480 3867 3727 4144 4165 4141 4199 4086 4456 4314 4649 4673 4695 4675 4720 4578 4917 4968 5131 5094 5251 5314 5262 5497 5370 5539 5902 5580 5893 5972 5863 6049 6463 6450 6128 6140 6433 6285 6393 6709 6359 6288 6678 6559 6788 7239 7427 7537 7514 7099 6890 6842 7284 7388 7638 7963 7943 7665 7679 7939 7952 7676 7654 7603 7745 7348 7689 7711 7724 7564 7621 7568 7764 7747 7373 7456 7139 7491 7325 7364 7683 7742 7731 7531 7200 6954 6634 6654 6607 6388 6447 5832 5538 5645 5431 4994 5122 4939 4503 4332 4375 3896 3420 3077 2544 2479 2609 2328 2151 1710 1420 1327 1099 854 524 -13 -281 -601 -868 -1089 -1386 -1472 -2075 -2425 -2681 -2542 -2836 -2889 -2765 -2963 -3202 -3594 -3665 -3569 -3728 -3821 -3812 -4119 -4060 -4480 -4617 -4695 -4534 -4518 -4717 -4641 -4643 -4680 -4731 -4601 -4804 -4839 -5202 -5033 -5014 -5178 -5149 -5154 -5200 -5110 -5661 -5624 -5949 -5736 -5277 -5448 -5464 -5398 -5066 -5090 -5452 -5303 -5337 -5317 -5264 -5408 -5383 -5049 -5201 -5198 -4808 -4759 -4786 -4834 -5188 -5040 -5087 -5047 -5218 -5196 -4864 -5129 -5000 -5414 -5296 -5102 -5205 -4811 -4579 -4679 -4346 -4299 -4240 -4236 -4288 -4292 -4343 -4626 -4283 -4453 -4382 -4423 -4308 -4705 -4487 -4305 -4060 -3820 -3926 -3767 -3975 -4063 -4051 -4060 -4222 -3775 -3894 -3718 -3724 -3858 -3542 -3467 -3460 -3476 -3711 -3696 -3698 -3609 -3499 -3890 -3873 -3518 -3639 -3317 -3273 -3222 -3424 -3438 -3319 -3653 -3598 -3273 -3449 -3432 -3431 -3052 -3154 -2767 -2771 -3132 -2993 -3344 -3067 -3046 -3055 -3337 -3365 -3446 -3241 -3379 -3164 -2711 -2928 -2751 -3188 -3015 -3064 -3385 -3256 -3606 -3642 -3658 -3641 -3617 -3313 -3450 -3435 -3293 -3620 -3287 -3362 -2947 -3113 -2743 -2748 -2871 -2292 -2004 -2095 -1718 -1680 -1916 -2053 -2001 -2365 -1959 -1714 -1526 -1662 -1458 -1856 -1714 -1709 -1760 -1734 -2058 -2073 -1747 -1671 -1856 -1640 -975 -1046 -1066 -904 -1108 -1134 -907 -1075 -729 -676 -752 -1063 -945 -1016 -985 -965 -935 -1106 -1051 -750 -895 -510 -395 -556 -132 -68 240 607 415 612 537 180 308 37 -146 -227 -395 -716 -1160 -1793 -2106 -2012 -2395 -2564 -2453 -2918 -3111 -2996 -2990 -2945 -3160 -3095 -3082 -2810 -2761 -2936 -2912 -2690 -2876 -2686 -2622 -2622 -2672 -2489 -2516 -2556 -2551 -2544 -2826 -2924 -2702 -2856 -2849 -2909 -2702 -2775 -2772 -2943 -2919 -2915 -2850 -2864 -2933 -2744 -2761 -3105 -3145 -3179 -3176 -3099 -2761 -2883 -2522 -2471 -2617 -2243 -2414 -2180 -2269 -2615 -2577 -2568 -2647 -2506 -2535 -2669 -2272 -2331 -1982 -2308 -2385 -2185 -2416 -2190 -2225 -2261 -2275 -2389 -1765 -1238 -643 -264 439 1311 1898 2402 2795 3269 4102 4798 6206 7365 9101 11334 13142 14260 15403 16238 17158 17978 18453 18267 17301 16184 14288 12512 10666 9109 7842 6750 4983 2206 -607 -2552 -4261 -5825 -7594 -9214 -10379 -11156 -11715 -12460 -13255 -13940 -13937 -13263 -12835 -11861 -10521 -9310 -8197 -7237 -6446 -5550 -5165 -4618 -4148 -3842 -3585 -3335 -2753 -2220 -1916 -1401 -1100 -749 -695 -819 -405 -590 -611 -491 -730 -1289 -1552 -1505 -1893 -1775 -2079 -1725 -1419 -1366 -922 -1057 -891 -779 -836 -886 -769 -405 -391 -444 -447 -403 -398 -405 -627 -603 -618 -399 -591 -322 -84 143 181 375 318 351 319 258 -11 -96 56 94 -125 124 45 0 -321 -276 91 -93 327 572 417 393 389 509 719 1134 896 1107 1040 1043 1105 901 994 1153 1554 1421 1464 1471 1422 1437 1526 1667 1732 1724 1715 1774 2144 2010 2329 2416 2235 2239 2193 2176 2334 2322 2035 2387 2225 2254 2573 2246 2428 2420 2279 2647 2843 2759 3192 3339 3207 3598 3642 3622 3267 3244 3684 3945 3753 3728 4127 4041 4398 4430 4232 4705 4531 4513 4672 4639 4332 4623 4720 4563 4973 5148 5209 5024 5443 5251 5425 5041 5086 5255 5697 5544 5892 6008 5919 5915 5947 5604 5960 6200 6019 6263 6245 6042 6416 6674 6924 6807 7190 6855 6998 6847 7079 7480 7472 7536 7402 7744 7610 7641 7646 7972 7972 7675 7979 8226 8086 8122 8086 8068 8277 8292 8106 8461 8553 8430 8773 8800 8762 8432 8550 8090 7811 7777 7419 7776 7618 7621 7765 7381 7537 7120 7263 6786 6776 6453 6265 5804 5625 5689 5250 5238 4954 4685 4435 4138 3516 3421 3125 2900 2269 1952 1875 1249 1087 779 568 156 298 70 -157 -624 -868 -1145 -1236 -1837 -2089 -2362 -2296 -2581 -2629 -2820 -3180 -3279 -3903 -4210 -4020 -4023 -4425 -4615 -4714 -4579 -4985 -5173 -5434 -5732 -5582 -5622 -5564 -5728 -5344 -5269 -5268 -5307 -5343 -5334 -5338 -5285 -5465 -5386 -5081 -4995 -5186 -5019 -5471 -5638 -5703 -5547 -5568 -5676 -5286 -5270 -5659 -5591 -5959 -5948 -5743 -5652 -5666 -5718 -5555 -5747 -5705 -5673 -5286 -5466 -5106 -5089 -5201 -4829 -4783 -4843 -5168 -5241 -5214 -5153 -4975 -4566 -4560 -4558 -4508 -4629 -4262 -4272 -4255 -4285 -4276 -4279 -4419 -4005 -4203 -4169 -4146 -4173 -4045 -4403 -4394 -4083 -3996 -4162 -4159 -4115 -3832 -3835 -3818 -3725 -3765 -3822 -4138 -4140 -4106 -4178 -3986 -4199 -3947 -3507 -3711 -3696 -3508 -3843 -3739 -3972 -4380 -3994 -4130 -3824 -4133 -4134 -3955 -3483 -3326 -3297 -3263 -3288 -3608 -3622 -3601 -3252 -3068 -3192 -3178 -2967 -3072 -3420 -3403 -3330 -3026 -3002 -2968 -2964 -2957 -3024 -3367 -3244 -3305 -3298 -3431 -2993 -3168 -2979 -3050 -2979 -3092 -2720 -2896 -2707 -2813 -3177 -3200 -3127 -3113 -3097 -2785 -2786 -3090 -3101 -2806 -3090 -2954 -3406 -3234 -3417 -2971 -2722 -2437 -2320 -2051 -1678 -1742 -1744 -1665 -1908 -2072 -2117 -1967 -2176 -1851 -1253 -951 -997 -1397 -1250 -1272 -1259 -1544 -1562 -1435 -1589 -1194 -1309 -1000 -917 -733 -1054 -743 -1055 -1044 -1064 -1027 -699 -723 -673 -706 -746 -1148 -1284 -1334 -1163 -1351 -927 -734 -430 -280 259 167 213 390 860 733 1115 913 1048 812 523 283 -83 67 -208 -733 -1260 -1874 -2091 -2022 -2212 -2501 -3076 -3060 -3434 -3267 -3266 -3362 -3200 -3180 -3136 -2776 -2896 -2540 -2679 -2286 -2210 -2228 -2245 -2262 -2269 -2206 -2029 -1975 -2368 -2225 -2268 -2563 -2577 -2613 -2597 -2278 -2190 -2392 -2404 -2411 -2180 -2354 -2026 -2013 -2381 -2216 -2188 -2417 -2426 -2177 -2227 -2603 -2519 -2867 -2902 -2528 -2255 -1938 -1672 -1890 -1870 -1858 -1857 -1699 -2137 -2020 -2014 -2114 -1773 -2069 -2112 -2159 -1944 -2002 -1997 -1950 -2090 -1692 -1456 -1292 -829 -311 605 1403 2168 2850 3410 3754 4679 5312 6671 7834 9648 11655 13506 15106 15885 16265 17133 18087 19053 19213 18706 17350 15946 13730 11735 10333 8973 7503 5627 3591 749 -1159 -2968 -4755 -6833 -9247 -10802 -11869 -12583 -12980 -13721 -14423 -14380 -13699 -13127 -11753 -10766 -9482 -8284 -7255 -6073 -5502 -4536 -4198 -3461 -2996 -2865 -2628 -2397 -1865 -957 -843 -770 -603 -180 40 -96 4 -328 -356 -233 -834 -971 -1188 -1420 -1843 -1912 -1826 -1235 -1121 -444 -338 -30 179 566 596 555 176 296 -56 -11 356 185 188 185 560 443 830 838 827 836 456 531 232 188 254 463 813 807 489 432 619 558 607 421 451 794 864 881 705 1117 999 1353 1384 1387 1368 1367 1370 1404 1167 1188 1176 1190 1221 1548 1612 1413 1502 1799 1808 1830 1870 1850 1830 1803 1876 2079 2165 2003 2340 2420 2238 2595 2543 2856 2859 2528 2850 2699 3162 3007 2995 3050 3058 3374 3403 3235 3256 3220 3346 3356 3379 3240 3631 3490 3867 3903 3777 4096 4153 4154 3989 4025 4219 3790 4105 4215 4450 4537 4797 5233 4995 5052 5114 5422 5501 5319 5673 5569 5840 6244 6231 5831 5980 5948 5989 5878 6090 6519 6370 6684 6712 6374 6301 6311 6357 6661 6718 6774 6612 6814 7078 7530 7764 7989 7863 8223 8227 8290 8088 8115 8159 8493 8386 8773 8588 8598 8609 8635 8993 8840 8868 8896 8921 8931 9230 9240 9036 8680 8847 9323 9292 8895 9069 9058 8850 8954 8914 9010 9010 8961 8617 8584 8743 8565 8492 8187 8255 7969 7698 7479 7228 6929 6657 6414 6244 5832 5612 5672 5400 4814 4676 3971 3508 3391 3124 2693 2524 2254 2173 1836 1538 996 726 613 266 -314 -636 -672 -1147 -970 -1162 -1430 -1774 -2366 -2571 -2498 -2941 -3118 -3041 -3436 -3613 -3530 -3932 -4110 -4047 -4264 -4657 -4666 -4651 -4669 -4700 -4498 -4892 -4800 -5205 -5034 -5027 -5227 -5169 -4854 -4851 -5198 -5071 -5458 -5636 -5531 -5564 -5708 -5362 -5649 -5722 -5526 -5575 -5576 -5574 -5575 -5541 -5574 -5951 -5797 -5833 -5787 -5628 -5719 -5356 -5324 -5634 -5660 -5345 -5470 -5105 -5117 -5059 -5010 -5235 -5027 -4997 -5001 -5214 -5173 -4845 -4862 -4795 -4788 -4773 -4840 -5184 -5039 -5068 -5107 -5038 -5070 -5048 -5059 -5245 -4860 -4785 -4829 -4761 -4981 -4939 -4939 -4876 -4603 -4517 -4711 -4565 -4564 -4596 -4574 -4705 -4258 -4459 -4469 -4302 -4336 -4704 -4560 -4551 -4671 -4231 -4355 -4081 -4419 -4395 -4467 -4403 -4013 -3969 -4059 -4225 -4343 -4228 -4125 -3498 -3598 -3504 -3914 -3737 -3808 -4111 -4156 -4128 -3798 -3715 -3848 -3496 -3634 -3669 -3492 -3516 -3551 -3576 -3545 -3477 -3457 -3681 -3613 -3263 -3212 -3248 -3259 -3209 -3387 -3408 -3244 -3274 -3305 -3665 -3538 -3573 -3525 -3465 -3220 -3143 -2885 -2873 -2731 -3077 -3091 -3088 -3076 -2727 -2888 -2894 -2929 -2879 -2855 -2540 -2513 -2506 -2488 -2640 -2282 -2371 -1972 -2151 -1991 -2385 -2292 -2603 -2271 -2377 -2122 -1836 -1443 -1599 -1538 -1557 -1564 -1259 -1396 -1337 -1331 -1281 -998 -940 -1149 -1137 -1043 -754 -757 -1080 -1117 -1044 -724 -668 -861 -840 -708 -1062 -1126 -1088 -1091 -1047 -866 -450 -581 -134 125 301 154 570 805 1026 933 1011 1286 991 926 1066 862 615 381 -338 -746 -1196 -1649 -1482 -1841 -2165 -2410 -2577 -2678 -2538 -2893 -2738 -2750 -2545 -2635 -2563 -2261 -2304 -2289 -2404 -2312 -1998 -1999 -2013 -2002 -2045 -2363 -2423 -2262 -2441 -2643 -2356 -1993 -2385 -2610 -2462 -2636 -2296 -2238 -2221 -2191 -2384 -2038 -1930 -1944 -2032 -2351 -2250 -2633 -2581 -2618 -2440 -2477 -2453 -2664 -2635 -2662 -2618 -2269 -2431 -2374 -2374 -2363 -2401 -2345 -1988 -1954 -1922 -2146 -2129 -2147 -2137 -2132 -2140 -2152 -2130 -2068 -1789 -1674 -1420 -1387 -1125 -477 -126 441 1325 1740 2632 2965 3846 4445 5043 6425 7716 9112 11193 13235 14772 15989 16653 17535 18441 18881 19212 18537 17136 15924 14183 11977 10606 8907 7598 6039 3803 1323 -1391 -3059 -4793 -6842 -9246 -10674 -12123 -12824 -13194 -13968 -14851 -14976 -14431 -13049 -11754 -10820 -9758 -8355 -7485 -6512 -5340 -4898 -4089 -3773 -3683 -3138 -2291 -1720 -1408 -794 -310 -127 102 -168 -464 -894 -500 -565 -633 -496 -858 -1044 -1281 -1217 -1232 -1383 -961 -1086 -697 -777 -564 -306 -86 297 357 272 -123 -278 -154 -555 -571 -539 -212 -376 -304 -283 -272 11 -44 145 610 831 728 1058 1051 1056 1050 1107 1102 747 719 744 1038 1146 955 1017 1356 1013 1372 1613 1805 1883 1851 1535 1663 1539 1254 1640 1816 1919 1875 1836 1862 1858 1455 1573 1659 1829 1745 2108 1922 2160 2066 2145 2361 2259 2286 2296 2222 2278 2515 2943 2872 2503 2470 2668 2494 2925 2754 2878 2492 2493 2526 2470 2507 2741 3021 3324 3522 3881 3929 3919 3945 3732 4119 4002 4071 4433 4608 4642 4633 4334 4649 4594 4753 4788 4772 4979 4778 5169 5035 5114 5468 5316 5307 5490 5388 5072 5429 5705 5619 5895 5954 5827 6227 6269 6174 5879 6265 6464 6381 6681 6772 6575 6645 6877 7145 7450 7466 7443 7123 7125 7550 7392 7762 7951 8209 8292 8219 8061 7958 8058 8087 8762 9002 8640 8379 8461 8458 8564 8809 9006 8846 9018 8978 9073 9283 9171 9309 9072 8678 8665 9043 8886 9240 9249 8888 8985 8827 8758 8721 8516 8209 7665 7693 7467 7089 7090 7103 7092 6813 6529 6367 6512 6135 6039 5880 5710 4863 4712 4387 4081 4048 4124 3911 3680 3448 3165 2842 2237 1943 1905 1259 1145 829 524 -69 -157 -796 -1097 -1017 -1155 -1456 -2082 -2044 -2391 -2429 -2619 -2853 -2754 -2995 -3608 -3944 -4142 -4032 -4268 -4585 -5146 -5199 -4984 -4702 -4262 