-2434 -2178 -1981 -2139 -2073 -1753 -1680 -1826 -1503 -1422 -1544 -1382 -959 -1043 -889 -501 -412 -638 -632 -626 -638 -402 -460 -828 -684 -700 -705 -683 -646 -887 -890 -896 -863 -822 -504 -432 -626 -611 -596 -255 -185 -201 -247 -527 -545 -555 -606 -615 -569 -529 -523 -221 -162 -359 -358 -376 -135 -180 -204 -170 -363 -313 -282 4 -265 -257 -272 -285 -261 -288 -306 -286 23 43 53 71 74 123 -112 -98 -93 -85 -88 -85 -70 -56 -36 -21 -29 -25 264 309 346 312 267 299 319 347 373 131 171 197 214 254 537 565 623 403 630 561 534 551 572 569 609 401 431 417 435 445 412 428 492 816 851 810 810 866 640 642 648 699 1024 1072 1131 917 911 941 1005 1289 1299 1314 1348 1362 1348 1351 1391 1189 1223 1260 1573 1620 1641 1628 1587 1567 1579 1614 1433 1516 1877 1713 1752 1753 1752 1740 1791 2172 2004 2035 2030 1998 1968 1985 2314 2410 2208 2257 2298 2582 2600 2592 2297 2297 2561 2573 2644 2675 2683 2668 2436 2496 2497 2498 2494 2491 2509 2509 2519 2819 2865 2850 2558 2529 2550 2554 2484 2669 2588 2279 2203 2193 2209 2389 2019 1937 2146 2090 2054 1739 1899 1814 1492 1418 1596 1268 1203 1405 1000 1094 700 878 863 812 494 416 587 208 346 -29 101 10 -312 -382 -187 -230 -244 -537 -624 -467 -775 -835 -666 -758 -1055 -1079 -1123 -922 -981 -1024 -1341 -1398 -1387 -1384 -1174 -1210 -1221 -1212 -1205 -1251 -1554 -1598 -1659 -1658 -1650 -1415 -1433 -1488 -1491 -1461 -1459 -1485 -1483 -1504 -1813 -1862 -1823 -1480 -1473 -1507 -1521 -1516 -1513 -1845 -1915 -1683 -1666 -1883 -1834 -1806 -1498 -1486 -1487 -1488 -1493 -1515 -1518 -1527 -1795 -1794 -1503 -1481 -1486 -1488 -1492 -1471 -1493 -1504 -1456 -1413 -1411 -1451 -1480 -1484 -1467 -1456 -1653 -1623 -1657 -1432 -1443 -1434 -1438 -1409 -1647 -1608 -1560 -1273 -1559 -1592 -1590 -1594 -1560 -1264 -1233 -1198 -1155 -1405 -1405 -1177 -1189 -1229 -1233 -1241 -1214 -1163 -1399 -1382 -1361 -1332 -1324 -1333 -1350 -1366 -1369 -1392 -1177 -1169 -1163 -1394 -1384 -1350 -1365 -1365 -1318 -983 -985 -1283 -1008 -932 -1134 -1152 -932 -935 -913 -903 -1107 -1062 -1071 -1099 -1111 -1104 -1056 -761 -1028 -1041 -1083 -1118 -1124 -1123 -1136 -934 -926 -1121 -1070 -1034 -766 -757 -1049 -1093 -1120 -1082 -1084 -1113 -1138 -1126 -1132 -934 -947 -1147 -1106 -1095 -1060 -1052 -1065 -1082 -1104 -1095 -1080 -1084 -1071 -1050 -1060 -1070 -1042 -713 -657 -888 -851 -802 -477 -459 -479 -773 -472 -420 -636 -625 -391 -433 -463 -424 -392 -595 -545 -533 -578 -584 -549 -535 -252 -217 -177 -141 -133 -180 -224 -513 -519 -252 -254 -251 -541 -593 -620 -571 -557 -513 -200 -148 -382 -139 -370 -345 -281 9 57 118 -118 -128 -108 -75 -95 120 113 111 40 -316 -169 -521 -606 -479 -837 -881 -659 -722 -719 -694 -710 -749 -1031 -1050 -1076 -1081 -1056 -1029 -761 -762 -743 -740 -714 -725 -714 -713 -721 -736 -1031 -1052 -1062 -1101 -1117 -1124 -1101 -1092 -1073 -1030 -1041 -1074 -1053 -767 -709 -655 -653 -699 -750 -1047 -1025 -707 -693 -722 -1027 -1029 -1054 -1089 -1099 -1089 -1104 -1086 -1062 -763 -711 -689 -680 -654 -665 -661 -890 -868 -667 -662 -641 -879 -890 -654 -697 -735 -1048 -1080 -1046 -755 -694 -879 -783 -637 -219 -291 -65 165 630 810 737 941 1396 1640 1716 2416 2934 3253 4106 4337 4936 5225 5269 5551 5809 6199 6171 5940 5269 4745 4420 3956 3326 2972 2509 2092 956 164 -370 -831 -1295 -1798 -1986 -2566 -2516 -2705 -3035 -3679 -3936 -3780 -3967 -3543 -3316 -3055 -2776 -2504 -2282 -2363 -1947 -2063 -1699 -1876 -1527 -1649 -1559 -1243 -1387 -962 -1036 -867 -468 -606 -545 -542 -565 -565 -577 -592 -634 -489 -885 -742 -1080 -1121 -1086 -747 -889 -772 -399 -605 -574 -554 -564 -575 -564 -544 -543 -536 -523 -230 -192 -172 -161 -152 -160 -167 -157 -383 -383 -147 -368 -340 -338 -372 -370 -332 -306 -304 -301 -296 -302 -324 -328 -300 -303 -289 12 39 38 39 58 91 117 118 -112 -113 -102 -62 -47 -28 287 318 332 315 290 285 365 190 205 169 129 358 365 165 247 556 582 600 615 631 396 393 388 638 399 435 511 784 769 472 490 800 829 855 891 642 893 643 644 668 715 727 748 767 1035 1033 1069 1114 1151 952 1002 1312 1328 1342 1349 1371 1374 1369 1402 1197 1232 1251 1265 1549 1593 1640 1465 1526 1798 1802 1808 1825 1855 1889 1689 1772 2101 2151 1924 1944 1961 1982 2039 2360 2427 2218 2252 2264 2261 2287 2603 2646 2656 2641 2645 2666 2442 2475 2503 2532 2542 2540 2846 2876 2867 2853 2859 2881 2875 2861 2895 2900 2886 2856 2884 2913 2888 2854 2824 2551 2525 2466 2449 2452 2434 2432 2679 2643 2564 2204 2394 2355 2007 2146 1775 1680 1848 1512 1463 1425 1618 1240 1397 1311 939 1074 750 668 848 485 621 559 513 151 284 -98 49 -302 -370 -159 -198 -241 -553 -385 -483 -850 -708 -1068 -898 -952 -990 -1000 -1284 -1336 -1367 -1367 -1380 -1391 -1155 -1183 -1226 -1258 -1556 -1600 -1628 -1635 -1636 -1644 -1448 -1516 -1811 -1813 -1856 -1883 -1858 -1844 -1861 -1881 -1884 -1883 -1854 -1831 -1823 -1829 -1808 -1815 -1860 -1883 -1860 -1816 -1794 -1515 -1507 -1508 -1502 -1504 -1808 -1825 -1816 -1828 -1849 -1850 -1832 -1795 -1523 -1520 -1501 -1500 -1511 -1508 -1504 -1483 -1490 -1526 -1800 -1809 -1826 -1826 -1814 -1525 -1519 -1510 -1473 -1456 -1455 -1437 -1660 -1651 -1660 -1443 -1495 -1521 -1508 -1478 -1450 -1448 -1467 -1480 -1479 -1469 -1444 -1431 -1663 -1648 -1636 -1575 -1243 -1211 -1213 -1271 -1598 -1658 -1446 -1414 -1577 -1241 -1224 -1226 -1265 -1560 -1593 -1615 -1595 -1574 -1557 -1266 -1225 -1200 -1189 -1168 -1404 -1374 -1374 -1389 -1374 -1328 -1292 -1284 -1289 -1285 -1303 -1332 -1334 -1328 -1326 -1282 -984 -971 -1012 -1292 -1303 -1330 -1356 -1388 -1372 -1316 -1297 -1285 -984 -940 -937 -960 -978 -980 -986 -1020 -993 -924 -912 -948 -957 -953 -974 -980 -965 -964 -977 -967 -949 -914 -1147 -1114 -1089 -1095 -1104 -1124 -1126 -1112 -900 -955 -954 -898 -922 -941 -931 -1137 -1141 -1108 -1059 -735 -660 -882 -879 -853 -822 -813 -770 -471 -410 -639 -615 -570 -579 -601 -621 -613 -617 -619 -580 -255 -229 -230 -228 -226 -255 -547 -557 -533 -253 -198 -164 -202 -227 -247 -235 -218 -225 -182 -350 -310 -312 -332 -291 37 98 96 93 71 36 20 55 -114 -81 -96 -114 85 10 -300 -376 -176 -254 -630 -501 -861 -678 -696 -679 -681 -689 -719 -706 -729 -1043 -1101 -1137 -1143 -898 -906 -1144 -1115 -1085 -1076 -1087 -1059 -1040 -1030 -761 -1044 -1081 -1068 -1061 -1084 -1118 -909 -941 -938 -976 -987 -967 -927 -940 -916 -1117 -1081 -1075 -1098 -1143 -901 -930 -956 -932 -898 -898 -1134 -1123 -1100 -1061 -1028 -1047 -1050 -1061 -1074 -1052 -767 -755 -737 -729 -739 -749 -1030 -1058 -1042 -1069 -1082 -1082 -1064 -1074 -1058 -1057 -1037 -760 -722 -892 -781 -418 -576 -152 86 318 573 833 764 923 1323 1269 1819 2156 2601 2964 3891 4428 4495 4737 4998 5314 5605 5828 5885 6005 5670 5195 4641 3830 3657 3045 2881 2038 1237 396 51 -418 -957 -1798 -2422 -2928 -2975 -3416 -3688 -3826 -4081 -4422 -4369 -3994 -3786 -3480 -3420 -3131 -2843 -2589 -2375 -1946 -2082 -1719 -1853 -1521 -1443 -1558 -1391 -988 -1122 -729 -857 -491 -444 -428 -443 -504 -814 -843 -852 -889 -717 -733 -1026 -1054 -1060 -751 -689 -645 -867 -842 -795 -773 -488 -432 -628 -387 -410 -390 -639 -634 -415 -406 -599 -530 -240 -228 -226 -236 -230 -202 -189 -165 -373 -340 -321 -326 -340 -366 -364 -328 -319 -294 -296 -306 -299 -298 -306 -298 -258 83 -105 -89 -106 -126 126 98 102 -125 -86 -83 -101 -98 127 93 70 83 -112 -49 -31 -19 -16 -27 -28 -10 271 279 302 343 133 142 160 206 241 516 519 537 548 583 595 627 415 449 490 784 830 838 857 887 667 659 674 727 744 752 753 1041 1041 1045 761 747 1029 1080 910 993 1282 1311 1312 1341 1356 1348 1387 1188 1263 1588 1658 1469 1502 1515 1535 1796 1811 1805 1835 1899 1725 1737 1724 1744 2055 2136 1929 1967 2005 2040 2306 2360 2385 2188 2228 2562 2601 2590 2569 2568 2596 2591 2621 2679 2502 2829 2876 2897 2910 2888 2886 2899 2923 2915 2897 2915 2936 2934 2921 2911 2888 2868 2881 2898 2911 2924 2885 2867 2859 2844 2824 2833 2556 2500 2662 2595 2277 2241 2187 2399 2328 1958 2123 1787 1710 1887 1799 1462 1622 1249 1388 1299 933 1080 717 885 809 453 597 238 351 -53 120 76 57 -268 -373 -196 -531 -615 -412 -456 -784 -869 -709 -752 -1032 -1085 -1130 -906 -947 -1281 -1348 -1406 -1194 -1246 -1560 -1567 -1576 -1602 -1626 -1626 -1663 -1448 -1452 -1440 -1414 -1434 -1468 -1495 -1514 -1528 -1524 -1507 -1498 -1509 -1528 -1515 -1501 -1509 -1800 -1837 -1854 -1858 -1877 -1867 -1851 -1862 -1878 -1871 -1860 -1853 -1822 -1797 -1516 -1513 -1515 -1515 -1503 -1494 -1490 -1475 -1465 -1480 -1521 -1805 -1801 -1793 -1513 -1477 -1479 -1522 -1796 -1796 -1527 -1797 -1811 -1535 -1502 -1471 -1445 -1416 -1418 -1414 -1420 -1442 -1426 -1622 -1608 -1624 -1636 -1655 -1660 -1637 -1619 -1599 -1610 -1605 -1564 -1259 -1256 -1250 -1230 -1213 -1231 -1225 -1188 -1233 -1553 -1553 -1269 -1229 -1164 -1370 -1351 -1350 -1353 -1358 -1349 -1363 -1372 -1372 -1379 -1382 -1369 -1336 -1321 -1300 -1309 -1291 -1015 -998 -988 -962 -935 -938 -963 -978 -1002 -1020 -1013 -1000 -979 -963 -979 -969 -941 -930 -921 -913 -922 -921 -1151 -1126 -1123 -1142 -915 -905 -1137 -1132 -1131 -1107 -1115 -902 -940 -929 -902 -902 -1133 -1104 -1097 -1097 -1093 -1070 -1053 -1098 -905 -911 -1151 -1111 -1065 -1032 -1053 -1080 -1099 -1090 -1062 -1051 -1029 -764 -1041 -1085 -1112 -1088 -1040 -711 -651 -852 -793 -511 -769 -490 -451 -461 -482 -467 -432 -409 -628 -606 -613 -604 -576 -540 -253 -233 -183 -381 -343 -332 -315 -292 -281 -288 -302 -307 -308 -299 -282 7 4 -291 -322 -352 -349 -349 -345 -337 -324 -299 -266 45 78 87 76 103 -100 -48 265 310 329 325 346 354 356 345 288 -15 -57 118 29 -276 -324 -161 -551 -622 -421 -476 -497 -509 -807 -891 -696 -710 -674 -887 -858 -868 -642 -686 -680 -888 -882 -881 -880 -873 -890 -674 -666 -879 -856 -877 -662 -698 -684 -674 -696 -702 -745 -1027 -746 -704 -660 -893 -666 -700 -737 -763 -1025 -733 -672 -656 -671 -692 -680 -670 -662 -893 -890 -647 -651 -875 -851 -840 -836 -818 -857 -875 -850 -809 -828 -863 -835 -793 -780 -826 -855 -871 -882 -670 -679 -885 -840 -780 -415 -251 -352 69 285 526 475 668 904 1356 1607 1685 2361 2866 3212 4118 4699 5145 5429 5683 5774 6117 6357 6398 6501 6172 5709 5175 4644 4212 3871 3203 2911 2106 964 554 38 -493 -1407 -2157 -2485 -3093 -3337 -3594 -3916 -4153 -4016 -4059 -3981 -3754 -3665 -3362 -3087 -2541 -2289 -2347 -2172 -1775 -1670 -1814 -1417 -1231 -1352 -989 -1111 -672 -783 -428 -617 -576 -583 -609 -640 -418 -444 -477 -500 -770 -824 -651 -714 -723 -644 -823 -476 -405 -627 -614 -605 -569 -540 -520 -250 -239 -209 -193 -186 -200 -236 -253 -228 -189 -157 -130 -359 -282 31 51 89 115 110 114 -122 -85 -37 -21 -54 -106 123 122 121 -123 100 62 69 108 120 -90 -52 -50 -11 -57 -104 -88 -65 -48 -7 299 330 340 313 304 338 359 357 377 153 194 241 516 547 547 572 607 627 387 453 780 780 781 505 785 790 808 853 874 880 868 641 651 688 741 1032 1067 1087 1081 1083 1133 929 950 952 971 978 966 965 1002 1021 1286 1363 1174 1195 1208 1207 1215 1260 1548 1569 1604 1619 1625 1416 1515 1818 1835 1856 1884 1899 1915 1690 1760 2104 1927 2006 2044 2308 2025 2020 2310 2369 2407 2416 2211 2278 2563 2562 2575 2568 2591 2608 2605 2631 2437 2496 2536 2830 2841 2848 2846 2852 2851 2857 2902 2717 2760 2798 3100 3078 2778 2747 2758 3098 3161 3183 3168 3131 3084 2773 2742 2747 2785 2789 2731 2926 2868 2858 2557 2461 2625 2286 2254 2230 2419 2345 2009 2171 1788 1676 1839 1483 1643 1567 1272 1204 1351 997 899 1035 664 846 801 457 592 515 176 375 291 -39 -106 18 -383 -245 -241 -252 -579 -450 -847 -677 -732 -751 -1025 -1058 -1120 -919 -967 -1006 -1281 -1287 -1293 -1329 -1336 -1344 -1374 -1399 -1385 -1162 -1238 -1258 -1252 -1219 -1211 -1225 -1261 -1567 -1648 -1478 -1536 -1509 -1662 -1616 -1658 -1430 -1424 -1660 -1422 -1432 -1418 -1664 -1438 -1448 -1434 -1656 -1636 -1614 -1586 -1614 -1422 -1417 -1625 -1613 -1635 -1645 -1636 -1621 -1409 -1650 -1611 -1618 -1652 -1642 -1625 -1651 -1418 -1628 -1608 -1614 -1590 -1571 -1243 -1199 -1236 -1538 -1547 -1266 -1237 -1227 -1203 -1207 -1219 -1197 -1188 -1207 -1255 -1242 -1232 -1206 -1221 -1239 -1226 -1212 -1196 -1197 -1248 -1549 -1596 -1576 -1269 -1200 -1155 -1394 -1382 -1341 -1341 -1354 -1336 -1328 -1314 -1005 -931 -927 -965 -1013 -1299 -1292 -1295 -998 -960 -940 -950 -981 -966 -925 -1149 -1132 -1126 -1134 -1116 -1109 -1098 -1118 -1134 -1144 -1139 -1122 -1112 -1107 -1126 -1130 -1139 -898 -1149 -1096 -1086 -1136 -941 -929 -1147 -1105 -1108 -1139 -1136 -1117 -1075 -1054 -1071 -1089 -1079 -1051 -1045 -1055 -1039 -1049 -1104 -1077 -1040 -1042 -730 -656 -679 -737 -1063 -1076 -1054 -765 -766 -747 -749 -1052 -1082 -1143 -912 -1115 -1042 -740 -687 -676 -667 -877 -841 -846 -858 -819 -776 -483 -468 -419 -621 -590 -605 -595 -570 -546 -513 -196 -165 -152 -155 -138 -142 -173 -209 -226 -180 -379 -131 -379 -342 -337 -341 -326 -312 -310 -257 71 71 40 -269 -325 -382 -166 -165 -374 4 99 -125 -116 -100 -85 127 89 65 106 -97 -40 268 283 270 -22 -45 -94 76 22 0 -303 -130 -210 -519 -603 -412 -422 -424 -470 -794 -815 -774 -494 -506 -488 -788 -846 -854 -862 -859 -868 -856 -857 -843 -839 -862 -862 -853 -837 -838 -821 -789 -803 -852 -892 -659 -677 -688 -679 -654 -874 -845 -801 -777 -808 -863 -883 -850 -867 -854 -824 -791 -783 -771 -776 -795 -841 -850 -819 -795 -852 -871 -843 -790 -507 -771 -499 -507 -503 -482 -435 -392 -394 -415 -447 -459 -483 -510 -804 -788 -480 -410 -583 -228 -136 -305 97 316 562 780 718 916 1329 1225 1479 2078 2260 2761 3321 3976 4498 4846 5384 5718 5769 6026 6478 6467 6199 5512 5038 4491 3993 3843 3214 2761 2040 1401 401 111 -476 -1314 -1895 -2396 -2509 -2935 -2811 -3404 -3526 -3813 -4177 -4104 -3894 -3589 -2981 -2925 -2660 -2190 -2001 -2109 -1768 -1682 -1815 -1435 -1641 -1575 -1172 -995 -1106 -727 -869 -444 -533 -202 -153 -135 -130 -172 -522 -593 -639 -432 -465 -477 -479 -443 -635 -597 -584 -574 -545 -519 -253 -192 -334 -258 1 -309 -343 -376 -129 -384 -370 -139 -165 -174 -168 -161 -134 -320 -295 -276 -274 -259 65 -120 109 47 -286 -307 -307 -311 32 -122 -76 -56 -39 -7 -5 -31 -32 -6 -21 -56 -44 287 302 299 271 -3 265 269 284 311 327 312 352 152 168 196 225 218 222 519 592 616 582 585 621 426 463 468 499 501 460 407 418 469 493 785 840 677 674 878 856 884 727 761 755 1029 1033 725 694 710 760 1107 932 1000 985 1011 1301 1336 1349 1320 1319 1342 1375 1367 1376 1252 1597 1618 1628 1630 1629 1654 1449 1802 1885 1900 1679 1713 1782 2074 2090 2130 2145 2155 2170 2006 2308 2308 2035 2317 2319 2379 2427 2184 2418 2415 2196 2224 2271 2278 2585 2647 2443 2469 2491 2526 2524 2506 2521 2556 2826 2834 2878 2703 2738 2728 2725 2739 2730 2926 2909 2921 2924 2896 2920 2698 2894 2548 2521 2510 2682 2613 2601 2611 2590 2259 2197 2405 2346 2044 1983 1921 2143 2057 1691 1841 1466 1641 1638 1582 1232 1154 1302 941 1148 1066 717 882 776 399 602 579 229 375 280 -59 75 -304 -134 -200 -224 -524 -596 -394 -453 -771 -795 -844 -649 -710 -1030 -1049 -1030 -1036 -1105 -921 -996 -1312 -1345 -1361 -1371 -1371 -1382 -1158 -1241 -1582 -1608 -1637 -1429 -1448 -1462 -1411 -1605 -1587 -1609 -1652 -1481 -1814 -1826 -1797 -1520 -1505 -1500 -1483 -1458 -1436 -1409 -1412 -1423 -1452 -1467 -1526 -1847 -1844 -1519 -1453 -1458 -1457 -1422 -1617 -1607 -1626 -1615 -1591 -1584 -1610 -1641 -1432 -1484 -1519 -1512 -1477 -1410 -1627 -1624 -1615 -1657 -1460 -1467 -1429 -1447 -1661 -1588 -1270 -1265 -1542 -1537 -1254 -1248 -1228 -1216 -1232 -1239 -1182 -1383 -1374 -1167 -1193 -1185 -1192 -1241 -1548 -1270 -1217 -1225 -1205 -1404 -1362 -1326 -1320 -1281 -1284 -1337 -1361 -1365 -1319 -1347 -1366 -1322 -1010 -1022 -1299 -1286 -1012 -983 -972 -969 -1005 -1307 -1299 -1018 -958 -1146 -1135 -903 -944 -982 -969 -924 -1144 -905 -917 -1146 -1134 -1125 -1106 -1109 -1118 -1143 -908 -1120 -1075 -1058 -1038 -1050 -1064 -1081 -907 -986 -1021 -1017 -980 -916 -1094 -1083 -1109 -1123 -1058 -1025 -1025 -1026 -1036 -764 -767 -1029 -1034 -1062 -1050 -749 -756 -1072 -1091 -1060 -1044 -1061 -912 -951 -1126 -1063 -1040 -758 -738 -693 -651 -894 -880 -847 -786 -506 -496 -469 -423 -594 -519 -521 -587 -637 -405 -390 -538 -157 -376 -382 -131 -133 -379 -364 -376 -367 -337 -324 -329 -326 -334 -340 -335 -300 -279 -323 -133 -162 -176 -162 -154 -130 -325 -258 71 -114 -90 -95 -62 -51 -106 81 41 55 90 103 62 -310 -147 -213 -569 -442 -782 -875 -707 -765 -1038 -1043 -1051 -1087 -1101 -1135 -1139 -1068 -763 -748 -732 -724 -736 -1057 -1127 -1113 -1088 -1105 -1089 -1069 -1044 -1043 -1059 -1067 -1104 -1130 -1127 -1076 -757 -759 -1044 -766 -709 -698 -753 -1039 -758 -750 -754 -728 -708 -742 -740 -760 -1030 -749 -762 -768 -1027 -1071 -1074 -1076 -1122 -934 -932 -1111 -1041 -1028 -1040 -1027 -1025 -754 -741 -747 -750 -755 -764 -756 -736 -706 -682 -886 -808 -496 -455 -601 -229 -332 -74 184 388 783 684 1124 1333 1628 1704 2369 2840 3365 3954 4236 4591 4853 5095 5374 5912 5791 5943 5689 5017 4699 4110 3678 3373 2804 2563 1814 668 -21 -207 -662 -1379 -1665 -2386 -2685 -2844 -2806 -3426 -3574 -4112 -4194 -4124 -3915 -3655 -3387 -3130 -2826 -2575 -2417 -2006 -2104 -1740 -1674 -1862 -1533 -1420 -1561 -1170 -1022 -1118 -694 -787 -442 -614 -558 -556 -563 -631 -478 -813 -877 -703 -1042 -1086 -1099 -1071 -767 -703 -877 -814 -505 -413 -540 -167 -145 -202 -207 -218 -532 -577 -569 -550 -541 -550 -531 -534 -542 -532 -236 -204 -205 -193 -143 -363 -349 -353 -343 -351 -336 -295 27 15 -267 -279 -268 12 10 -270 11 45 39 62 103 121 -107 -65 -29 -10 270 261 -3 -23 -28 -40 -28 264 271 272 308 361 350 346 346 372 375 132 154 161 195 555 399 420 629 581 564 604 633 411 464 490 501 797 817 810 794 802 819 825 827 836 862 872 890 648 687 713 727 744 1054 1081 1105 1126 929 971 999 1292 1329 1340 1309 1289 1367 1220 1537 1585 1580 1583 1612 1415 1476 1475 1490 1535 1828 1902 1721 1755 1780 2070 2091 2102 2120 2130 2161 1949 1984 2037 2367 2184 2256 2295 2302 2571 2592 2623 2630 2607 2603 2620 2642 2660 2476 2529 2517 2483 2481 2495 2445 2651 2634 2654 2663 2684 2456 2460 2454 2462 2483 2512 2524 2500 2478 2446 2675 2650 2618 2575 2271 2201 2388 2311 1973 1920 2121 2064 1751 1709 1672 1884 1530 1424 1598 1261 1174 1368 1303 906 1024 664 859 818 479 405 604 517 140 310 259 -95 61 -270 -365 -244 -394 -482 -785 -820 -875 -649 -686 -750 -1095 -915 -981 -1001 -1015 -1302 -1344 -1382 -1193 -1248 -1274 -1563 -1607 -1631 -1621 -1610 -1626 -1645 -1654 -1646 -1421 -1449 -1463 -1475 -1495 -1509 -1508 -1514 -1797 -1828 -1821 -1826 -1836 -1826 -1806 -1531 -1534 -1826 -1858 -1878 -1678 -1699 -1689 -1667 -1902 -1870 -1835 -1800 -1817 -1807 -1526 -1810 -1844 -1874 -1868 -1828 -1812 -1814 -1813 -1818 -1811 -1519 -1474 -1448 -1433 -1657 -1624 -1631 -1657 -1433 -1441 -1443 -1453 -1436 -1631 -1606 -1610 -1611 -1617 -1418 -1426 -1641 -1594 -1557 -1544 -1544 -1272 -1537 -1554 -1579 -1590 -1597 -1561 -1537 -1253 -1245 -1271 -1549 -1558 -1556 -1565 -1553 -1270 -1259 -1269 -1271 -1250 -1216 -1191 -1405 -1378 -1382 -1379 -1367 -1368 -1355 -1357 -1365 -1329 -1320 -1363 -1395 -1392 -1393 -1349 -1310 -1296 -1307 -1359 -1387 -1374 -1361 -1368 -1375 -1366 -1381 -1154 -1154 -1363 -1332 -1322 -1292 -1024 -1011 -968 -975 -968 -956 -980 -1007 -987 -1003 -1019 -987 -919 -1138 -911 -938 -922 -921 -945 -940 -945 -965 -989 -997 -970 -947 -942 -900 -1125 -1143 -937 -952 -935 -911 -1149 -1143 -1138 -1116 -1132 -1152 -1132 -1083 -762 -688 -868 -806 -792 -801 -790 -809 -825 -827 -813 -789 -805 -778 -498 -455 -445 -440 -426 -418 -434 -431 -389 -598 -603 -594 -555 -533 -527 -521 -516 -517 -541 -532 -247 -245 -524 -539 -546 -540 -564 -598 -605 -569 -550 -530 -222 -183 -162 -370 -291 21 26 48 60 46 3 48 108 -113 93 -282 -355 -144 -206 -242 -549 -391 -490 -825 -866 -668 -714 -730 -751 -1058 -1101 -1143 -1136 -1139 -1116 -1084 -1058 -1076 -1106 -1122 -1134 -1145 -1151 -910 -897 -901 -930 -915 -897 -1143 -919 -954 -929 -1149 -1096 -1045 -758 -1041 -1065 -1050 -756 -724 -717 -679 -655 -673 -726 -755 -764 -1059 -1106 -1143 -1112 -1033 -734 -711 -706 -715 -729 -757 -1033 -1049 -1053 -1043 -763 -749 -1028 -1041 -1035 -754 -755 -753 -745 -744 -737 -697 -890 -819 -480 -387 -519 -381 74 303 557 509 723 966 1158 1627 1891 2017 2532 3361 3931 4433 4576 5152 5474 5533 5837 6031 6250 5800 5750 5030 4493 3987 3843 3238 3103 2294 1492 856 -75 -567 -1085 -1657 -2009 -2445 -2728 -3164 -3391 -3528 -3815 -4192 -4175 -3799 -3855 -3599 -3342 -2810 -2819 -2587 -2423 -2005 -2101 -1748 -1699 -1875 -1506 -1639 -1227 -1328 -1147 -736 -835 -453 -616 -575 -545 -544 -581 -621 -442 -495 -798 -831 -854 -865 -883 -894 -648 -888 -840 -809 -789 -494 -431 -393 -394 -402 -435 -441 -453 -455 -415 -388 -632 -391 -397 -389 -598 -256 -184 -151 -172 -152 -143 -156 -155 -146 -375 -340 -343 -383 -361 -372 -375 -331 -286 10 -274 -292 -319 -326 -311 -299 13 -262 33 76 -122 -98 106 89 98 114 -87 -15 284 306 309 285 267 261 290 336 343 342 354 138 205 512 255 252 224 192 182 220 540 584 601 586 603 637 406 440 480 504 793 862 675 725 727 745 1056 1117 1145 1151 1127 1101 1107 1102 1146 922 917 946 981 992 979 1014 1314 1368 1402 1166 1187 1200 1235 1541 1568 1606 1630 1427 1487 1529 1830 1893 1693 1699 1910 1906 1712 2072 2138 2153 1923 1966 2031 2341 2370 2382 2395 2402 2190 2211 2229 2274 2584 2623 2620 2648 2681 2441 2447 2495 2527 2817 2851 2894 2922 2925 2910 2923 2689 2697 2936 2938 2935 2926 2903 2888 2870 2845 2515 2483 2487 2463 2483 2481 2469 2681 2588 2252 2216 2185 2396 2361 2306 1977 2139 2093 1764 1684 1836 1488 1428 1648 1589 1240 1405 1310 932 1076 747 654 836 789 497 412 551 188 349 265 -85 75 -261 -327 -145 -208 -523 -625 -481 -822 -895 -737 -1096 -1149 -926 -955 -1002 -1298 -1335 -1400 -1211 -1223 -1209 -1203 -1224 -1537 -1582 -1636 -1444 -1452 -1429 -1421 -1420 -1417 -1428 -1480 -1520 -1512 -1471 -1430 -1469 -1479 -1465 -1500 -1794 -1526 -1463 -1414 -1446 -1498 -1494 -1483 -1475 -1462 -1457 -1473 -1491 -1496 -1479 -1456 -1465 -1450 -1453 -1475 -1492 -1486 -1469 -1468 -1474 -1448 -1657 -1650 -1658 -1641 -1637 -1648 -1640 -1610 -1598 -1594 -1606 -1610 -1605 -1596 -1632 -1630 -1628 -1623 -1640 -1653 -1631 -1624 -1609 -1580 -1584 -1595 -1626 -1629 -1605 -1579 -1553 -1269 -1260 -1237 -1214 -1180 -1189 -1220 -1259 -1277 -1253 -1243 -1252 -1249 -1240 -1266 -1278 -1249 -1203 -1169 -1161 -1407 -1386 -1336 -1301 -1016 -1022 -1287 -1303 -1338 -1381 -1382 -1321 -982 -940 -974 -1021 -1302 -1298 -1324 -1348 -1347 -1338 -1349 -1376 -1346 -1296 -1012 -1018 -1288 -1013 -1010 -1014 -988 -970 -970 -979 -987 -946 -910 -927 -938 -930 -942 -955 -939 -925 -932 -957 -976 -958 -968 -986 -971 -963 -952 -945 -929 -897 -1128 -1133 -1133 -1131 -1138 -1134 -1117 -1094 -1089 -1100 -1107 -1086 -1083 -1076 -1031 -732 -712 -693 -878 -805 -510 -770 -770 -492 -482 -477 -463 -412 -625 -612 -600 -589 -386 -433 -439 -436 -450 -440 -394 -596 -561 -550 -534 -525 -520 -539 -544 -522 -238 -238 -221 -208 -237 -245 -229 -203 -204 -209 -226 -215 -194 -192 -177 -135 -337 -281 58 115 -100 -76 -67 -30 -46 -94 -127 106 50 -264 -298 -320 -347 -143 -226 -609 -471 -804 -836 -871 -676 -766 -1088 -1099 -1097 -1101 -1093 -1077 -1062 -1025 -764 -1038 -1065 -1066 -1041 -1031 -1045 -1072 -1078 -1073 -1093 -1107 -1081 -1072 -1096 -1136 -1145 -1148 -903 -898 -1129 -1101 -1093 -1111 -1119 -1124 -1116 -1082 -747 -724 -745 -1052 -1102 -1112 -1125 -1122 -1088 -1074 -1072 -1028 -713 -718 -752 -1061 -1085 -1067 -1047 -1036 -1034 -1031 -1043 -1041 -1069 -1116 -1124 -1099 -1057 -746 -735 -719 -659 -802 -438 -567 -149 83 323 557 808 1038 972 1350 1276 1835 1983 2504 3392 3801 4343 4972 5232 5291 5958 6028 6516 6283 6113 5998 5261 4744 4468 3742 3625 2954 2647 1815 696 327 -196 -744 -1637 -2336 -2891 -3011 -3271 -3508 -3835 -4062 -4381 -4087 -4224 -3757 -3473 -3433 -3169 -2912 -2665 -2190 -2007 -2135 -1779 -1678 -1830 -1456 -1279 -1372 -967 -1079 -667 -800 -462 -437 -423 -445 -503 -817 -841 -883 -680 -726 -743 -733 -743 -758 -744 -669 -823 -474 -627 -560 -534 -560 -586 -564 -549 -560 -565 -579 -616 -614 -577 -584 -546 -254 -206 -200 -215 -193 -148 -143 -146 -176 -178 -143 -363 -350 -347 -318 -288 -277 -260 -278 -277 -262 43 80 91 110 -99 -48 -29 -37 -45 -40 -73 -100 -73 -35 -47 -32 277 325 307 275 297 328 343 365 153 197 196 205 206 225 245 512 524 544 550 560 589 624 392 639 410 460 770 783 814 841 844 838 850 872 652 683 707 725 710 709 716 748 1032 1028 1050 1077 1108 1106 1118 903 922 948 1018 1327 1377 1388 1165 1213 1243 1538 1594 1652 1438 1458 1492 1800 1835 1890 1676 1709 1718 1740 2053 2090 2132 2148 1931 1965 1991 2012 2040 2350 2381 2394 2407 2194 2209 2230 2286 2576 2589 2581 2627 2646 2670 2453 2523 2836 2840 2868 2875 2907 2931 2703 2719 2729 2932 2893 2930 2708 2718 2696 2757 2782 2755 2724 2703 2939 2887 2870 2822 2827 2820 2552 2504 2472 2441 2652 2636 2294 2201 2349 1995 1922 2082 1748 1682 1873 1527 1451 1641 1569 1223 1376 1290 960 1125 1024 687 839 486 391 580 208 372 289 -40 92 6 -313 -378 -187 -530 -607 -628 -401 -505 -862 -680 -758 -1111 -912 -962 -976 -1021 -1311 -1329 -1382 -1180 -1194 -1214 -1240 -1271 -1575 -1603 -1630 -1634 -1649 -1654 -1659 -1412 -1446 -1456 -1466 -1495 -1518 -1520 -1516 -1803 -1811 -1512 -1478 -1441 -1433 -1423 -1419 -1432 -1449 -1467 -1497 -1513 -1509 -1484 -1457 -1434 -1441 -1444 -1471 -1513 -1817 -1825 -1827 -1800 -1808 -1802 -1798 -1813 -1510 -1446 -1425 -1445 -1446 -1470 -1472 -1452 -1414 -1639 -1642 -1425 -1445 -1435 -1632 -1624 -1628 -1606 -1606 -1614 -1603 -1606 -1627 -1628 -1629 -1611 -1593 -1608 -1596 -1575 -1552 -1571 -1568 -1572 -1575 -1570 -1553 -1270 -1236 -1196 -1181 -1182 -1205 -1237 -1254 -1197 -1357 -1355 -1365 -1378 -1364 -1360 -1396 -1169 -1401 -1353 -1323 -1290 -1284 -1289 -1308 -1321 -1368 -1406 -1171 -1381 -1298 -984 -956 -920 -917 -954 -974 -960 -911 -910 -975 -1004 -992 -960 -907 -1086 -1033 -1031 -1062 -1079 -1092 -1126 -907 -940 -944 -945 -958 -960 -944 -919 -1148 -1111 -1083 -1083 -1104 -1092 -1105 -1126 -1147 -1138 -1129 -1150 -1142 -1119 -1102 -1118 -1132 -1089 -1051 -768 -1029 -1036 -1054 -1085 -1100 -1072 -1047 -761 -1033 -1068 -1057 -1060 -765 -691 -650 -644 -874 -829 -771 -475 -433 -407 -434 -471 -480 -439 -408 -400 -386 -622 -620 -396 -405 -403 -403 -432 -451 -439 -388 -608 -589 -531 -230 -195 -159 -365 -358 -381 -380 -374 -349 -305 -275 -257 -285 -331 -327 -321 -310 -301 -279 30 81 95 112 -90 -87 -109 -81 -6 288 272 280 263 -36 -96 103 122 -116 80 -343 -523 -640 -427 -444 -457 -504 -839 -687 -731 -724 -749 -766 -726 -680 -683 -682 -649 -885 -667 -664 -870 -850 -857 -833 -793 -787 -829 -886 -682 -708 -734 -746 -689 -655 -705 -747 -711 -642 -836 -506 -450 -488 -858 -683 -667 -885 -879 -882 -877 -893 -648 -659 -653 -660 -687 -685 -659 -877 -863 -851 -845 -881 -651 -664 -880 -810 -779 -796 -798 -781 -790 -806 -813 -826 -840 -787 -447 -593 -217 -328 125 354 619 874 1064 977 1375 1249 1490 2086 2247 2802 3528 4243 4780 5392 5690 5990 6030 6297 6730 6722 6274 5868 5650 5133 4640 4199 3539 3066 2611 1470 703 146 -137 -726 -1420 -2027 -2489 -2790 -3032 -3630 -3934 -3837 -4136 -3782 -3852 -3603 -3037 -2718 -2460 -2258 -2358 -2167 -1730 -1865 -1516 -1415 -1271 -1356 -949 -1056 -889 -430 -253 -151 -350 -316 -301 -280 -283 -320 -382 -197 -542 -611 -387 -388 -399 -411 -614 -561 -572 -568 -597 -633 -595 -517 -172 -350 -360 -167 -209 -205 -238 -522 -235 -155 -361 -344 -360 -365 -295 52 86 97 107 96 108 -122 114 100 111 90 101 109 122 117 85 111 -75 -25 260 272 284 279 -18 -46 -22 324 376 129 146 193 227 540 590 599 570 574 585 585 559 536 585 431 477 483 493 777 773 507 499 479 470 783 819 847 825 835 867 890 641 708 1077 1104 766 732 743 744 761 765 1029 1057 1078 1127 939 1001 1292 1316 1327 1340 1377 1397 1167 1198 1229 1260 1565 1585 1615 1659 1438 1464 1473 1483 1519 1797 1807 1820 1882 1699 1728 1759 1788 2049 2058 2118 1931 1948 1964 1994 2016 2029 1986 1989 2320 2390 2195 2261 2589 2630 2439 2502 2529 2476 2661 2643 2464 2549 2830 2840 2850 2870 2870 2895 2716 2769 2802 2799 2775 2720 2689 2688 2720 2710 2931 2938 2761 2809 2791 2797 2768 2694 2905 2883 2901 2921 2904 2871 2851 2545 2477 2435 2440 2677 2629 2295 2212 2017 2126 2076 2107 2097 1756 1891 1525 1440 1586 1221 1207 1244 1193 1287 1124 735 882 808 502 444 627 552 198 139 293 -47 89 -261 -346 -197 -220 -549 -625 -473 -840 -881 -645 -705 -755 -764 -1050 -1100 -1150 -905 -919 -975 -1286 -1344 -1184 -1263 -1266 -1216 -1360 -1326 -1333 -1378 -1179 -1271 -1571 -1565 -1577 -1587 -1583 -1601 -1652 -1431 -1422 -1435 -1460 -1463 -1421 -1630 -1582 -1541 -1567 -1638 -1437 -1419 -1661 -1435 -1440 -1647 -1591 -1572 -1552 -1591 -1652 -1438 -1457 -1420 -1556 -1549 -1556 -1591 -1633 -1410 -1432 -1439 -1641 -1624 -1647 -1610 -1546 -1257 -1249 -1248 -1248 -1232 -1202 -1182 -1401 -1387 -1189 -1241 -1234 -1256 -1255 -1263 -1260 -1268 -1542 -1574 -1582 -1260 -1208 -1394 -1376 -1398 -1181 -1169 -1389 -1363 -1356 -1382 -1164 -1375 -1347 -1311 -1304 -994 -897 -1094 -1134 -912 -1149 -903 -934 -974 -1000 -1021 -994 -965 -965 -952 -1143 -941 -1008 -1311 -1290 -989 -972 -940 -911 -964 -1296 -1299 -990 -944 -1152 -1091 -766 -1045 -1074 -1076 -1077 -1103 -1128 -1105 -1102 -908 -948 -950 -932 -906 -898 -1151 -1129 -1138 -1113 -1095 -1079 -1069 -1134 -1141 -1101 -1081 -1075 -1051 -1047 -1072 -1142 -913 -1133 -1081 -1033 -703 -691 -707 -741 -751 -753 -737 -707 -643 -819 -819 -863 -884 -833 -486 -433 -445 -465 -470 -473 -460 -457 -489 -779 -782 -487 -444 -639 -555 -245 -513 -559 -564 -523 -234 -205 -145 -351 -318 -300 -292 -286 -288 -340 -371 -138 -147 -174 -179 -139 -353 -137 -182 -150 -150 -166 -379 -313 -334 -339 -300 -269 -257 22 86 -94 -59 -88 82 7 -295 -336 -155 -533 -389 -443 -771 -867 -892 -656 -673 -648 -880 -666 -702 -707 -699 -645 -871 -670 -722 -744 -742 -714 -714 -722 -671 -834 -775 -797 -880 -729 -1029 -1068 -1070 -758 -723 -756 -1035 -1047 -1029 -1032 -723 -644 -669 -715 -719 -699 -693 -713 -690 -706 -746 -1028 -1045 -743 -731 -714 -658 -819 -801 -805 -793 -785 -810 -844 -843 -843 -878 -662 -647 -889 -877 -856 -843 -848 -836 -794 -458 -409 -452 -412 -589 -212 -305 -63 188 411 851 765 916 1369 1645 1723 2177 2887 3395 3729 4272 4940 5242 5302 5577 5849 6072 6121 6228 5906 5426 4908 4435 3759 3638 2995 2432 1862 1070 193 -336 -863 -1180 -1720 -2355 -2563 -2464 -3096 -3607 -3923 -3744 -3765 -3922 -3665 -3375 -3126 -2860 -2567 -2357 -1976 -2157 -2114 -1757 -1896 -1805 -1427 -1539 -1363 -931 -765 -856 -415 -251 -354 -344 -378 -175 -243 -557 -631 -452 -780 -808 -808 -809 -805 -823 -858 -824 -790 -487 -409 -562 -216 -191 -159 -380 -374 -172 -208 -210 -218 -217 -214 -234 -219 -240 -250 -204 -157 -353 -287 -274 -287 -263 55 117 106 13 -309 -271 48 119 -71 -71 -94 -105 111 81 -124 -81 -126 113 -105 -45 -35 -54 -77 -83 -99 -75 -8 291 312 332 365 363 371 158 206 192 160 178 530 598 574 581 594 595 601 386 398 395 602 585 599 610 565 587 607 638 459 497 771 771 785 836 878 641 687 714 715 741 737 1040 1124 910 897 1135 902 917 958 1016 1323 1370 1154 1180 1177 1407 1167 1236 1279 1572 1603 1636 1426 1439 1439 1442 1466 1480 1513 1528 1531 1818 1893 1752 2098 2107 2083 2119 1952 2020 2322 2040 2029 2012 2035 2354 2429 2252 2236 2233 2254 2225 2411 2204 2575 2642 2629 2655 2675 2632 2623 2647 2658 2669 2667 2676 2661 2632 2616 2664 2478 2513 2545 2540 2513 2487 2501 2536 2514 2449 2675 2639 2605 2248 2195 2212 2217 2431 2340 2002 1969 1959 2148 2085 1723 1864 1485 1625 1561 1210 1337 993 914 1115 1071 1029 728 872 485 634 522 365 264 -19 -76 99 -277 -353 -382 -157 -228 -545 -593 -388 -442 -504 -795 -886 -718 -763 -1048 -1068 -1081 -1089 -1120 -942 -1299 -1359 -1318 -1303 -1020 -1010 -1024 -1325 -1382 -1177 -1199 -1228 -1235 -1248 -1248 -1244 -1224 -1179 -1181 -1244 -1568 -1587 -1538 -1229 -1252 -1558 -1555 -1570 -1555 -1261 -1249 -1546 -1577 -1600 -1585 -1572 -1599 -1629 -1416 -1645 -1590 -1555 -1582 -1661 -1509 -1826 -1534 -1509 -1486 -1441 -1648 -1661 -1416 -1643 -1575 -1584 -1648 -1631 -1598 -1567 -1549 -1249 -1240 -1270 -1542 -1541 -1280 -1258 -1230 -1219 -1234 -1253 -1539 -1277 -1215 -1389 -1373 -1388 -1156 -1175 -1395 -1361 -1376 -1176 -1220 -1222 -1208 -1244 -1249 -1212 -1168 -1170 -1401 -1367 -1160 -1205 -1172 -1364 -1305 -1304 -1299 -1002 -963 -933 -909 -898 -904 -909 -1140 -1130 -1115 -1107 -1111 -1122 -1120 -1137 -1152 -1147 -904 -941 -986 -1009 -969 -929 -938 -929 -1147 -1148 -916 -906 -1120 -1088 -1104 -1112 -1083 -1027 -1029 -1038 -761 -761 -1078 -1064 -765 -750 -1039 -1084 -1085 -1102 -1133 -903 -978 -1281 -987 -916 -1132 -1127 -1122 -1085 -1034 -1031 -1026 -714 -677 -679 -685 -666 -643 -644 -662 -873 -834 -790 -466 -424 -429 -443 -485 -472 -462 -469 -483 -467 -433 -432 -434 -433 -442 -439 -449 -467 -423 -386 -417 -439 -423 -432 -454 -404 -400 -431 -451 -470 -468 -428 -620 -600 -591 -393 -426 -411 -601 -581 -558 -250 -216 -202 -132 -311 0 -282 -307 -306 -338 -151 -247 -581 -584 -571 -604 -455 -858 -695 -751 -767 -748 -734 -717 -739 -1049 -1108 -1139 -1087 -1051 -1076 -1089 -1088 -1052 -1064 -1096 -1073 -1070 -1089 -1073 -1050 -753 -1027 -1086 -1075 -1058 -1068 -1078 -1081 -1109 -1108 -1076 -1029 -732 -711 -694 -670 -641 -680 -683 -669 -671 -704 -741 -712 -697 -721 -1025 -1045 -750 -683 -648 -664 -658 -656 -678 -696 -708 -738 -738 -705 -715 -1025 -1074 -1052 -1064 -1060 -1049 -1046 -1095 -1082 -760 -662 -824 -780 -436 -602 -146 98 317 540 776 725 1114 1018 1582 1703 2407 2708 3298 4115 4273 4590 5182 5306 5592 5812 6150 6007 5734 5101 4877 4352 3956 3649 3068 2529 1738 1139 195 -263 -504 -998 -1534 -2024 -2591 -2502 -2940 -3331 -3481 -3943 -3761 -3950 -3549 -3280 -2995 -2707 -2675 -2410 -2005 -1922 -1926 -2142 -2094 -1747 -1673 -1534 -1657 -1274 -1359 -910 -693 -802 -451 -422 -446 -769 -817 -855 -876 -681 -740 -1058 -1056 -1069 -1076 -1097 -1074 -755 -674 -878 -808 -494 -408 -585 -532 -573 -601 -594 -608 -409 -461 -467 -472 -458 -439 -441 -451 -431 -416 -628 -609 -556 -525 -203 -211 -206 -216 -238 -232 -235 -238 -242 -213 -208 -184 -161 -147 -170 -174 -147 -150 -141 -140 -368 -351 -295 37 117 -113 89 59 67 94 105 101 -127 -97 -48 258 279 284 -26 -77 -96 -28 300 353 162 146 378 350 341 368 143 184 215 248 522 579 639 426 457 446 431 435 427 438 461 454 439 427 437 468 500 786 841 878 858 837 842 883 678 757 1090 1149 930 966 1298 1348 1373 1396 1360 1339 1406 1211 1542 1595 1587 1558 1560 1631 1661 1431 1458 1457 1459 1478 1523 1836 1894 1677 1698 1720 1744 2059 2127 1956 1990 2027 2342 2177 2267 2281 2272 2264 2257 2269 2288 2568 2299 2271 2289 2609 2651 2440 2481 2470 2437 2661 2665 2446 2478 2502 2485 2480 2461 2443 2457 2436 2645 2591 2585 2575 2291 2287 2230 2367 2001 1944 1937 1933 1933 2149 2055 1706 1881 1823 1520 1460 1635 1563 1263 1185 1306 941 1113 1048 703 870 768 423 575 224 177 335 -22 -119 79 28 -312 -175 -528 -615 -451 -782 -853 -660 -709 -741 -1056 -1142 -981 -1313 -1336 -1346 -1383 -1386 -1374 -1158 -1230 -1561 -1634 -1656 -1632 -1571 -1271 -1549 -1595 -1643 -1427 -1422 -1448 -1484 -1515 -1823 -1871 -1882 -1847 -1822 -1828 -1877 -1918 -1893 -1855 -1847 -1861 -1899 -1681 -1668 -1900 -1871 -1829 -1823 -1837 -1861 -1873 -1856 -1823 -1810 -1834 -1851 -1873 -1886 -1918 -1671 -1899 -1880 -1886 -1885 -1859 -1795 -1509 -1494 -1453 -1441 -1423 -1652 -1653 -1440 -1439 -1662 -1639 -1635 -1659 -1653 -1639 -1653 -1440 -1446 -1428 -1656 -1650 -1634 -1609 -1601 -1622 -1623 -1595 -1587 -1592 -1628 -1636 -1630 -1638 -1599 -1540 -1542 -1567 -1589 -1600 -1589 -1589 -1614 -1604 -1553 -1250 -1211 -1167 -1159 -1183 -1223 -1215 -1201 -1217 -1230 -1212 -1206 -1230 -1219 -1188 -1408 -1406 -1405 -1398 -1404 -1170 -1198 -1233 -1253 -1540 -1573 -1558 -1257 -1199 -1392 -1360 -1363 -1392 -1392 -1382 -1341 -1304 -1309 -1318 -1311 -1302 -1300 -1004 -972 -963 -950 -910 -919 -992 -1317 -1326 -1311 -1306 -1017 -968 -935 -930 -919 -1148 -1128 -1105 -1073 -1093 -1116 -1091 -1047 -730 -660 -884 -848 -847 -880 -676 -708 -692 -652 -869 -827 -776 -800 -882 -673 -893 -830 -803 -502 -447 -412 -399 -636 -597 -564 -543 -534 -535 -530 -552 -599 -612 -617 -621 -394 -434 -463 -501 -770 -795 -831 -888 -657 -850 -782 -512 -485 -428 -597 -537 -237 -161 -312 23 47 25 -279 -333 -143 -155 -178 -221 -551 -416 -792 -894 -709 -750 -1040 -1093 -1118 -1106 -1127 -958 -1010 -975 -924 -899 -1146 -1135 -1116 -1136 -1129 -1104 -1097 -1127 -1124 -1105 -1073 -1069 -1091 -1091 -1114 -1150 -1150 -1119 -1107 -1119 -1130 -1130 -1105 -1113 -1142 -1146 -1119 -1088 -1074 -1070 -1062 -1070 -1070 -1084 -1111 -1118 -1128 -1112 -1116 -905 -945 -934 -1133 -1066 -1056 -1071 -1071 -1091 -1100 -1092 -1053 -768 -743 -740 -759 -1032 -760 -717 -693 -652 -816 -464 -634 -553 -178 -273 -98 376 405 692 914 1300 1238 1804 1956 2441 3024 3895 4393 4481 4991 5054 5677 5993 6218 6021 6148 5568 5113 4869 4360 3918 3292 3129 2573 1535 683 335 -141 -653 -1222 -2104 -2563 -2858 -2785 -2989 -3638 -3715 -4127 -4129 -3776 -3575 -3294 -2976 -2940 -2456 -2252 -2313 -2171 -2050 -1709 -1867 -1505 -1436 -1597 -1158 -938 -767 -832 -429 -637 -386 -635 -616 -399 -461 -770 -819 -890 -701 -1034 -1058 -1081 -1104 -1093 -1051 -765 -709 -856 -774 -468 -440 -416 -411 -404 -392 -635 -628 -634 -414 -435 -422 -468 -778 -785 -512 -479 -464 -414 -611 -568 -566 -570 -548 -538 -517 -239 -201 -208 -244 -229 -176 -144 -383 -378 -364 -354 -368 -366 -353 -338 -315 -297 -283 -269 -266 16 39 54 61 56 67 68 72 88 111 -128 -85 -16 271 280 -8 -18 258 306 322 344 380 140 174 200 224 252 254 536 572 582 566 576 624 421 461 460 476 478 501 807 847 840 850 881 655 668 680 707 738 1024 1056 1100 1139 897 1150 904 950 952 929 933 1001 1023 1322 1351 1388 1183 1242 1560 1583 1583 1613 1414 1488 1815 1876 1894 1664 1693 1743 2073 2136 2170 1941 1954 1964 1968 1952 1965 2013 2327 2373 2421 2197 2235 2241 2258 2289 2578 2618 2673 2485 2501 2477 2467 2484 2502 2493 2543 2554 2524 2461 2667 2446 2532 2861 2924 2712 2700 2915 2893 2844 2523 2467 2449 2433 2439 2631 2575 2303 2258 2425 2358 2318 1990 2137 1757 1670 1847 1792 1501 1442 1601 1234 1388 1308 973 1117 1027 696 856 501 431 605 522 175 335 267 -82 82 -268 -348 -177 -545 -602 -404 -453 -809 -866 -648 -707 -1035 -1078 -1104 -1145 -952 -1012 -1327 -1385 -1174 -1189 -1205 -1232 -1277 -1572 -1573 -1583 -1612 -1621 -1607 -1636 -1653 -1642 -1643 -1660 -1451 -1479 -1480 -1475 -1480 -1459 -1458 -1499 -1514 -1519 -1488 -1471 -1524 -1817 -1812 -1808 -1813 -1854 -1887 -1864 -1857 -1841 -1808 -1799 -1801 -1814 -1812 -1859 -1879 -1869 -1835 -1820 -1821 -1812 -1508 -1485 -1524 -1515 -1473 -1429 -1441 -1472 -1452 -1421 -1662 -1639 -1623 -1624 -1659 -1421 -1420 -1419 -1446 -1479 -1480 -1499 -1512 -1488 -1431 -1643 -1605 -1586 -1549 -1280 -1272 -1230 -1204 -1236 -1255 -1246 -1223 -1252 -1279 -1270 -1240 -1236 -1226 -1231 -1228 -1215 -1220 -1195 -1155 -1401 -1391 -1383 -1362 -1368 -1389 -1154 -1153 -1390 -1357 -1315 -1021 -995 -990 -982 -971 -957 -978 -998 -1009 -1295 -1314 -1292 -1016 -1019 -1311 -1323 -1289 -987 -1008 -1023 -990 -938 -926 -929 -926 -935 -957 -920 -1108 -1051 -1033 -741 -749 -1039 -1067 -1069 -1036 -1053 -1097 -1114 -1103 -1100 -1132 -1139 -1135 -1132 -1144 -1128 -1139 -1149 -905 -1134 -1089 -1065 -1042 -1036 -745 -718 -703 -664 -869 -840 -829 -803 -779 -788 -788 -505 -465 -468 -495 -461 -638 -617 -387 -389 -620 -613 -606 -559 -255 -233 -227 -188 -159 -153 -156 -134 -355 -353 -350 -314 -283 -304 -343 -141 -167 -186 -197 -197 -204 -235 -256 -522 -239 -184 -137 -321 26 87 99 97 119 -108 -112 -101 -68 -105 92 40 -257 -298 -332 -130 -223 -606 -465 -792 -847 -661 -730 -1051 -1085 -1110 -1119 -1106 -1072 -1061 -1035 -747 -729 -743 -742 -701 -676 -669 -657 -884 -861 -864 -652 -693 -717 -748 -761 -760 -758 -1032 -1076 -1100 -1108 -1110 -1093 -1039 -711 -655 -708 -763 -765 -1047 -1075 -1062 -762 -708 -711 -744 -746 -1040 -1091 -1071 -1056 -1040 -738 -671 -886 -869 -879 -872 -867 -889 -894 -874 -847 -817 -807 -800 -788 -802 -813 -785 -474 -432 -619 -240 -360 69 263 244 490 712 938 1385 1591 1869 1963 2432 3051 3963 4309 4801 5100 5364 5963 6052 6320 6399 6285 6268 5574 5087 4559 4353 3965 3294 2801 2317 1179 440 117 -419 -994 -1702 -2293 -2923 -3154 -3357 -3671 -3954 -3834 -4100 -3783 -3857 -3592 -3332 -3092 -2846 -2601 -2384 -1936 -1745 -1830 -1494 -1449 -1620 -1247 -1368 -957 -1025 -849 -443 -582 -528 -556 -394 -460 -490 -490 -793 -855 -664 -693 -740 -1026 -740 -673 -841 -789 -480 -422 -634 -589 -555 -534 -536 -534 -527 -531 -549 -557 -553 -545 -532 -525 -253 -248 -237 -250 -238 -225 -199 -182 -175 -146 -366 -337 -314 -300 -311 -315 -309 -312 -299 10 82 -120 -114 -106 -64 -19 -33 -72 -58 -3 279 260 -3 275 274 264 -4 -47 -96 119 111 -112 -22 281 303 315 309 308 339 128 169 168 154 192 238 520 540 558 552 549 566 582 613 625 409 470 499 784 815 833 844 858 883 662 688 723 1029 1105 896 907 929 984 1323 1395 1171 1162 1404 1152 1153 1154 1152 1394 1394 1175 1173 1196 1257 1572 1616 1408 1459 1501 1514 1493 1505 1529 1836 1666 1759 2066 2102 2103 2115 2171 1953 1973 2008 2318 2351 2390 2426 2200 2214 2218 2267 2607 2666 2685 2489 2816 2865 2866 2864 2886 2908 2923 2694 2711 2694 2934 2721 2787 2814 3082 3076 3087 3098 3096 3091 3115 3149 3147 3117 3112 3085 2792 2778 2763 2699 2688 2699 2721 2696 2835 2466 2658 2603 2295 2266 2221 2405 2306 1946 2111 1789 1750 1706 1899 1527 1416 1583 1265 1200 1366 1022 918 1079 740 674 833 455 632 519 173 305 -53 102 3 -142 -205 -208 -523 -569 -390 -458 -814 -874 -659 -727 -1026 -1104 -900 -939 -961 -982 -992 -976 -1000 -1288 -1332 -1345 -1336 -1387 -1204 -1249 -1263 -1213 -1183 -1195 -1197 -1205 -1214 -1246 -1260 -1550 -1575 -1574 -1570 -1618 -1664 -1664 -1646 -1420 -1484 -1513 -1519 -1457 -1434 -1437 -1498 -1819 -1830 -1508 -1459 -1456 -1491 -1532 -1471 -1409 -1629 -1409 -1425 -1650 -1578 -1263 -1240 -1256 -1545 -1540 -1263 -1264 -1541 -1540 -1229 -1233 -1253 -1249 -1226 -1238 -1229 -1216 -1214 -1211 -1213 -1403 -1398 -1174 -1186 -1163 -1159 -1170 -1405 -1371 -1389 -1408 -1399 -1377 -1378 -1174 -1172 -1369 -1302 -1309 -1355 -1361 -1325 -1333 -1332 -1299 -1008 -1000 -1287 -1346 -1322 -1311 -1014 -988 -985 -999 -1017 -1294 -1299 -1291 -1282 -998 -952 -981 -1001 -986 -1013 -1325 -1351 -1281 -930 -923 -937 -930 -901 -942 -1000 -977 -944 -940 -939 -907 -1123 -1105 -1110 -1121 -1145 -1108 -1088 -1074 -1060 -1052 -1044 -1052 -1056 -1078 -1094 -1085 -1063 -1063 -1073 -1071 -1076 -1069 -1043 -739 -717 -750 -1060 -1066 -1027 -752 -731 -687 -660 -661 -655 -877 -836 -814 -784 -473 -436 -435 -429 -424 -463 -504 -465 -425 -631 -399 -441 -477 -465 -431 -639 -604 -600 -564 -537 -199 -374 -343 -376 -367 -367 -379 -362 -367 -136 -170 -200 -194 -188 -155 -141 -166 -144 -159 -203 -223 -203 -177 -378 -320 -276 5 74 -96 -17 273 274 260 -32 122 15 2 43 28 -336 -233 -621 -432 -414 -402 -459 -796 -890 -739 -1052 -1085 -1108 -1065 -1045 -765 -751 -723 -699 -679 -703 -724 -1032 -1076 -1048 -1040 -1060 -1126 -1127 -1065 -760 -1031 -1070 -1097 -1126 -904 -905 -1136 -1066 -756 -733 -727 -726 -713 -695 -694 -690 -688 -715 -734 -767 -1058 -1075 -1030 -1035 -1058 -1053 -1052 -1039 -757 -702 -656 -666 -692 -716 -719 -703 -696 -720 -751 -726 -698 -689 -670 -666 -693 -660 -813 -469 -634 -241 -324 -124 340 564 795 1044 973 1360 1593 1694 2396 2702 3598 4218 4718 4811 5402 5520 6157 6522 6735 6707 6483 5824 5339 4835 4342 4148 3481 3064 2451 1854 1067 192 -375 -712 -1647 -2034 -2495 -2788 -2978 -3293 -3899 -4180 -4048 -4008 -4121 -3849 -3280 -2957 -2931 -2466 -2578 -2403 -2025 -2107 -1690 -1531 -1621 -1256 -1342 -925 -1046 -688 -512 -632 -522 -232 -220 -228 -568 -636 -447 -815 -667 -663 -662 -676 -685 -687 -874 -826 -794 -500 -421 -611 -589 -531 -199 -163 -183 -207 -251 -535 -564 -558 -248 -177 -151 -378 -379 -142 -190 -184 -384 -352 -363 -384 -373 -373 -344 -281 51 77 46 7 -276 -273 -260 36 53 32 61 -103 -26 -51 -86 -77 -73 -91 124 71 55 96 -70 -34 -8 263 287 324 338 309 298 315 339 366 140 181 523 591 592 565 592 619 617 388 419 464 471 463 487 781 802 811 842 668 734 746 1029 1034 754 1026 1138 983 968 942 939 940 908 1084 1035 1105 922 996 1020 1015 975 984 1019 1012 982 980 1319 1160 1259 1589 1613 1621 1652 1408 1477 1813 1886 1684 1763 1788 2076 2095 2116 2108 2087 2136 1949 1993 1966 1977 2010 2307 2348 2348 2340 2348 2377 2422 2224 2298 2611 2644 2443 2492 2515 2484 2469 2481 2504 2530 2557 2557 2550 2827 2866 2909 2930 2941 2921 2907 2863 2841 2864 2851 2820 2545 2832 2875 2842 2552 2821 2825 2555 2528 2494 2660 2569 2228 2179 2385 2323 1970 2139 1778 1720 1720 1687 1817 1425 1585 1257 1194 1389 1312 951 1124 746 860 511 407 550 233 236 206 363 -3 -101 15 -362 -153 -139 -151 -183 -545 -421 -497 -784 -812 -850 -891 -670 -713 -762 -1082 -957 -1342 -1401 -1176 -1212 -1198 -1171 -1162 -1210 -1259 -1542 -1585 -1587 -1559 -1556 -1573 -1614 -1440 -1479 -1418 -1626 -1605 -1624 -1421 -1435 -1447 -1465 -1489 -1510 -1454 -1635 -1627 -1410 -1452 -1468 -1478 -1470 -1500 -1804 -1837 -1816 -1517 -1520 -1801 -1834 -1523 -1450 -1611 -1599 -1610 -1576 -1566 -1614 -1653 -1642 -1623 -1639 -1643 -1588 -1550 -1553 -1568 -1550 -1271 -1272 -1541 -1541 -1257 -1543 -1548 -1255 -1211 -1208 -1221 -1159 -1356 -1368 -1371 -1378 -1378 -1177 -1217 -1228 -1207 -1396 -1344 -1355 -1396 -1153 -1350 -1313 -1304 -978 -917 -951 -1291 -1290 -982 -929 -956 -1308 -1310 -1289 -1012 -973 -934 -926 -971 -1022 -1325 -1321 -1283 -1008 -957 -1147 -897 -1149 -910 -951 -937 -1141 -1063 -758 -719 -1036 -1083 -1053 -707 -714 -751 -1051 -1058 -1066 -1112 -910 -937 -930 -900 -899 -1146 -1145 -1136 -1144 -930 -919 -1139 -1068 -1033 -1042 -1111 -1124 -1121 -1085 -737 -652 -892 -650 -659 -653 -896 -879 -873 -818 -506 -494 -474 -417 -617 -619 -629 -595 -576 -574 -563 -544 -559 -560 -548 -539 -520 -242 -205 -203 -237 -530 -595 -589 -253 -194 -184 -171 -178 -180 -188 -189 -222 -241 -225 -250 -240 -235 -255 -218 -190 -204 -214 -230 -242 -256 -207 -311 72 91 105 -92 -63 -71 -86 -87 -102 112 55 -264 -262 -291 -135 -203 -553 -635 -486 -829 -867 -868 -879 -655 -750 -1083 -1081 -1120 -1114 -1092 -1060 -1036 -1062 -1060 -1030 -695 -889 -644 -650 -680 -698 -745 -766 -1036 -1037 -1040 -751 -711 -713 -1025 -1025 -736 -734 -763 -737 -721 -752 -1034 -753 -684 -859 -887 -661 -649 -671 -726 -768 -1029 -1029 -1031 -730 -684 -710 -698 -896 -865 -878 -671 -692 -679 -687 -693 -676 -651 -893 -859 -882 -664 -675 -653 -859 -787 -474 -405 -580 -235 -287 -57 199 462 882 1052 963 1155 1410 1789 2215 2734 3318 4173 4659 4991 5010 5329 5904 6178 6036 6253 5856 5578 5376 4593 4384 3814 3699 3176 2205 1633 657 328 -241 -1050 -1652 -2164 -2221 -2676 -2877 -3061 -3523 -3770 -4150 -3833 -3859 -3599 -3342 -3100 -2879 -2635 -2410 -1971 -2119 -1751 -1894 -1825 -1481 -1615 -1187 -995 -1077 -661 -500 -573 -240 -526 -547 -545 -561 -591 -613 -421 -478 -769 -831 -855 -830 -805 -506 -492 -460 -414 -410 -398 -575 -221 -185 -517 -604 -621 -394 -410 -393 -396 -388 -387 -434 -471 -398 -582 -223 -133 -370 -361 -299 20 25 -267 -291 -312 -339 -319 22 71 51 27 24 61 88 99 127 -116 -123 -115 -60 -34 -23 -24 -12 264 276 256 275 297 288 271 294 333 365 309 274 298 337 368 155 229 250 514 524 226 219 530 601 415 394 612 625 421 476 490 770 847 860 809 808 830 834 825 832 863 646 676 706 731 727 760 1091 1133 1141 905 912 956 996 1019 1288 1314 1316 1301 1351 1177 1220 1243 1235 1241 1261 1556 1578 1604 1660 1480 1819 1860 1904 1690 1718 1782 2055 1789 1791 2107 1925 1983 2024 2315 2330 2028 1995 2042 2369 2404 2390 2406 2194 2228 2291 2601 2631 2614 2619 2676 2465 2512 2826 2854 2827 2525 2544 2913 2749 2716 2927 2701 2705 2722 2765 2757 2725 2701 2696 2937 2868 2551 2528 2531 2473 2647 2628 2632 2622 2586 2289 2257 2194 2351 2010 1941 2105 1747 1916 1887 1839 1489 1415 1596 1234 1364 999 922 1103 1026 714 680 848 449 596 235 154 321 -31 -104 61 -260 -317 -334 -363 -134 -174 -234 -582 -485 -883 -657 -673 -732 -1064 -1092 -1139 -961 -1021 -1312 -1382 -1168 -1188 -1172 -1220 -1267 -1547 -1603 -1625 -1624 -1627 -1611 -1602 -1606 -1564 -1542 -1577 -1647 -1421 -1657 -1663 -1414 -1626 -1587 -1608 -1645 -1418 -1423 -1421 -1449 -1438 -1425 -1424 -1428 -1648 -1607 -1612 -1646 -1417 -1438 -1499 -1531 -1501 -1440 -1424 -1423 -1431 -1458 -1485 -1501 -1468 -1444 -1429 -1442 -1441 -1471 -1487 -1513 -1498 -1449 -1430 -1657 -1661 -1415 -1424 -1442 -1440 -1653 -1614 -1630 -1584 -1262 -1277 -1573 -1603 -1589 -1271 -1201 -1402 -1359 -1401 -1182 -1166 -1157 -1165 -1406 -1378 -1375 -1388 -1154 -1382 -1352 -1316 -1298 -1282 -1285 -1313 -1334 -1353 -1374 -1394 -1166 -1155 -1401 -1377 -1359 -1313 -1305 -1363 -1386 -1341 -1296 -1312 -1348 -1350 -1350 -1318 -1299 -1285 -1012 -997 -986 -979 -985 -1285 -1329 -1338 -1303 -953 -931 -931 -944 -942 -914 -1152 -1143 -1129 -1118 -1117 -1143 -933 -946 -916 -1113 -1095 -1089 -1113 -1120 -1142 -906 -928 -946 -951 -943 -902 -1118 -1092 -1085 -1099 -1089 -1075 -1050 -1034 -766 -1026 -746 -701 -892 -823 -775 -466 -451 -490 -778 -493 -466 -460 -444 -406 -607 -607 -612 -553 -519 -538 -531 -526 -538 -537 -530 -574 -605 -598 -577 -576 -580 -598 -618 -639 -628 -640 -631 -627 -631 -627 -590 -523 -193 -162 -359 -267 48 78 96 114 81 -257 -342 -148 -195 -234 -569 -482 -864 -666 -675 -698 -741 -1031 -1049 -1087 -1151 -982 -1323 -1345 -1293 -985 -947 -1144 -1096 -1079 -1107 -1099 -1096 -1103 -1097 -1095 -1086 -1038 -1069 -1129 -900 -934 -965 -977 -971 -931 -902 -1135 -1141 -925 -934 -905 -1141 -915 -936 -938 -919 -897 -1152 -899 -1139 -1146 -902 -1110 -1084 -1109 -1133 -1137 -1106 -1073 -1045 -1041 -1037 -1041 -1044 -1041 -1036 -768 -741 -714 -703 -729 -752 -763 -1050 -1092 -1109 -1091 -1038 -726 -666 -801 -574 -326 -64 150 553 470 663 1115 1354 1643 1769 2282 3183 3569 4075 4684 4955 5010 5373 5952 6176 6188 6014 5679 5246 4495 3998 3863 3271 3142 2293 1476 646 328 -130 -892 -1190 -1776 -2238 -2513 -2698 -3008 -3468 -3809 -4199 -4156 -3752 -3519 -3254 -2975 -2935 -2653 -2199 -2326 -1981 -2136 -1772 -1677 -1840 -1470 -1614 -1226 -1308 -1095 -892 -482 -412 -614 -580 -601 -633 -410 -475 -830 -672 -738 -1027 -1073 -1099 -1069 -760 -728 -680 -875 -813 -487 -440 -390 -620 -610 -598 -583 -549 -542 -586 -630 -431 -460 -454 -414 -634 -405 -393 -637 -619 -618 -631 -610 -580 -556 -518 -219 -212 -212 -216 -214 -198 -189 -180 -148 -371 -133 -143 -141 -138 -130 -384 -357 -311 -292 -307 -293 -306 -308 -312 -288 20 48 37 40 93 -116 -75 -61 -58 -36 -27 263 271 274 296 337 378 128 136 140 164 175 201 247 531 544 548 565 551 573 639 439 463 448 440 464 470 505 491 508 817 843 841 870 657 686 704 727 1038 1065 1072 1117 1148 915 922 958 968 967 983 1281 1317 1346 1395 1238 1569 1570 1592 1615 1656 1485 1799 1856 1911 1686 1721 1775 2061 2063 2063 2053 1773 1725 1726 1762 2084 2105 2136 1944 2020 2312 2334 2342 2333 2336 2354 2397 2218 2563 2635 2669 2677 2660 2622 2626 2648 2650 2674 2438 2434 2663 2664 2684 2686 2662 2646 2651 2648 2648 2629 2607 2561 2240 2198 2425 2402 2368 2345 2328 2031 1936 2107 1773 1702 1897 1834 1795 1471 1606 1233 1180 1368 980 1112 760 664 804 443 624 576 250 181 364 279 -72 94 38 -276 -366 -209 -557 -389 -472 -782 -822 -870 -676 -750 -1065 -1103 -1152 -974 -1292 -1358 -1403 -1194 -1249 -1589 -1646 -1648 -1645 -1660 -1422 -1470 -1517 -1801 -1817 -1512 -1459 -1439 -1491 -1519 -1813 -1819 -1879 -1901 -1913 -1895 -1875 -1851 -1849 -1843 -1861 -1898 -1667 -1909 -1679 -1721 -1730 -1746 -1761 -1763 -1712 -1690 -1705 -1685 -1897 -1868 -1853 -1887 -1919 -1694 -1920 -1887 -1871 -1869 -1875 -1842 -1830 -1801 -1536 -1523 -1489 -1463 -1475 -1505 -1495 -1491 -1503 -1519 -1513 -1503 -1505 -1496 -1489 -1486 -1491 -1473 -1429 -1634 -1617 -1613 -1634 -1654 -1416 -1652 -1613 -1611 -1636 -1646 -1633 -1620 -1613 -1632 -1653 -1428 -1448 -1450 -1431 -1652 -1620 -1633 -1619 -1595 -1590 -1593 -1545 -1262 -1253 -1250 -1243 -1227 -1225 -1202 -1177 -1166 -1180 -1161 -1402 -1387 -1408 -1165 -1408 -1393 -1382 -1397 -1388 -1351 -1340 -1351 -1355 -1339 -1345 -1336 -1308 -1316 -1343 -1326 -1281 -983 -971 -966 -974 -993 -1006 -1009 -1014 -999 -973 -958 -951 -958 -962 -952 -946 -947 -953 -936 -900 -903 -914 -915 -925 -917 -906 -1124 -1069 -768 -755 -753 -732 -714 -711 -690 -646 -870 -860 -869 -835 -787 -769 -475 -452 -433 -444 -450 -421 -393 -627 -632 -637 -393 -388 -582 -515 -224 -227 -524 -558 -527 -254 -518 -249 -234 -244 -525 -522 -547 -592 -612 -619 -604 -610 -580 -547 -536 -513 -191 -379 -339 -314 0 81 125 110 87 71 43 -283 -367 -171 -201 -516 -586 -417 -796 -671 -734 -755 -1029 -1086 -1132 -1145 -902 -911 -905 -1127 -1103 -1082 -1092 -1110 -1108 -1115 -1096 -1036 -748 -766 -1049 -1059 -1077 -1124 -900 -1149 -1134 -1116 -1074 -1038 -1066 -1070 -1087 -1103 -1119 -1125 -1085 -766 -1053 -1115 -1124 -1135 -906 -918 -924 -917 -914 -913 -910 -1141 -1132 -911 -928 -947 -965 -963 -917 -1125 -1111 -1110 -1082 -1034 -741 -737 -1028 -1060 -1089 -1099 -1103 -1076 -1043 -758 -722 -665 -881 -855 -508 -631 -234 -302 -63 200 442 668 1113 1312 1560 1906 2331 2875 3230 4097 4337 4941 5207 5293 5964 6056 6452 6130 6197 5590 5401 4866 4373 3727 3587 3109 2181 1564 774 -79 -391 -950 -1868 -2243 -2922 -3188 -3384 -3485 -3837 -4028 -4077 -4029 -4135 -3891 -3596 -3060 -2774 -2514 -2565 -2399 -2008 -2133 -2052 -1727 -1864 -1451 -1542 -1407 -998 -1089 -682 -813 -477 -447 -457 -487 -771 -798 -837 -644 -705 -741 -768 -1032 -764 -724 -673 -888 -843 -502 -417 -627 -585 -529 -245 -234 -236 -231 -520 -547 -584 -596 -621 -628 -584 -549 -560 -571 -531 -244 -204 -195 -203 -152 -362 -370 -138 -142 -145 -135 -378 -336 -275 16 29 20 12 -265 -261 5 18 31 56 82 98 88 93 -113 -75 -62 -86 -68 -67 -81 -67 -27 -15 -21 268 312 348 131 173 189 200 232 524 556 575 574 587 619 635 631 626 634 632 630 634 390 434 458 485 783 816 810 824 875 649 673 679 715 763 1057 1087 1113 1114 1096 1141 962 1023 1332 1361 1400 1171 1205 1231 1254 1275 1554 1583 1596 1595 1621 1439 1509 1820 1874 1664 1716 1783 2105 2173 1948 1955 1953 1990 2038 2321 2339 2364 2387 2392 2385 2393 2407 2394 2396 2178 2221 2266 2301 2622 2652 2647 2437 2472 2455 2461 2483 2819 2899 2943 2698 2723 2727 2709 2700 2710 2728 2725 2698 2938 2694 2736 2738 2728 2937 2861 2559 2554 2816 2833 2821 2539 2514 2488 2456 2669 2658 2630 2300 2250 2205 2382 2032 1966 2134 1778 1671 1830 1478 1645 1553 1205 1363 986 1115 1047 723 666 839 510 420 561 208 165 354 266 -115 39 -270 -343 -142 -195 -524 -613 -456 -811 -648 -675 -715 -758 -754 -1052 -1152 -973 -1290 -1345 -1398 -1405 -1388 -1404 -1170 -1189 -1211 -1280 -1601 -1602 -1598 -1586 -1574 -1268 -1256 -1550 -1590 -1616 -1617 -1576 -1551 -1565 -1587 -1592 -1607 -1605 -1599 -1614 -1648 -1658 -1646 -1630 -1625 -1606 -1572 -1580 -1625 -1645 -1612 -1578 -1570 -1566 -1560 -1596 -1624 -1613 -1584 -1564 -1566 -1566 -1546 -1560 -1580 -1570 -1542 -1277 -1276 -1262 -1235 -1229 -1255 -1552 -1541 -1259 -1229 -1180 -1385 -1370 -1393 -1382 -1358 -1367 -1355 -1319 -1325 -1348 -1379 -1398 -1401 -1163 -1161 -1404 -1385 -1391 -1168 -1205 -1207 -1215 -1230 -1205 -1163 -1352 -1355 -1358 -1357 -1371 -1397 -1400 -1359 -1319 -1316 -1308 -974 -975 -991 -983 -977 -990 -1016 -1299 -1293 -979 -950 -930 -914 -1150 -913 -932 -905 -1132 -1130 -1094 -1079 -1092 -1094 -1088 -1086 -1079 -1068 -1071 -1053 -767 -1036 -1038 -744 -768 -1083 -1116 -1101 -1060 -1032 -742 -708 -714 -759 -1071 -1123 -1141 -1134 -1114 -1053 -749 -730 -715 -682 -661 -668 -892 -814 -493 -493 -487 -446 -454 -494 -484 -406 -617 -592 -572 -553 -531 -229 -185 -196 -513 -568 -538 -235 -252 -248 -190 -353 -310 -310 -311 -292 -330 -373 -383 -345 -283 11 8 19 60 60 54 58 47 30 25 39 14 -257 24 89 -90 -75 -78 -110 -85 -53 285 355 381 373 343 288 -49 123 44 38 32 28 -330 -219 -627 -500 -798 -488 -474 -511 -810 -659 -741 -1046 -1054 -1031 -746 -734 -735 -718 -681 -671 -873 -869 -645 -691 -710 -704 -691 -649 -891 -892 -647 -643 -869 -848 -853 -651 -737 -752 -752 -1044 -1036 -754 -734 -701 -666 -645 -655 -724 -763 -1053 -1056 -1028 -740 -737 -744 -1027 -1036 -731 -705 -677 -890 -835 -816 -839 -886 -663 -656 -671 -648 -869 -641 -659 -861 -792 -509 -769 -503 -451 -440 -627 -228 -371 44 258 518 778 722 901 1344 1545 1830 1969 2435 3001 3577 4372 4573 4861 5447 5627 6018 6522 6343 6476 6219 5604 5419 4901 4443 3793 3669 3165 2180 1574 651 371 -170 -1044 -1478 -2321 -2508 -2795 -3342 -3703 -3714 -4116 -4127 -3821 -3895 -3618 -3056 -2792 -2556 -2604 -2393 -1964 -2065 -1919 -1498 -1613 -1260 -1399 -1293 -1140 -687 -473 -570 -224 -163 -139 -141 -174 -184 -199 -231 -569 -402 -463 -777 -800 -788 -497 -453 -425 -604 -556 -528 -248 -218 -212 -226 -251 -255 -203 -171 -178 -250 -545 -591 -609 -584 -515 -155 -337 -264 37 34 -267 -280 -283 23 54 89 119 -125 -95 -82 -70 122 70 85 -97 -30 279 288 323 344 370 181 235 242 207 158 136 375 378 146 213 232 253 521 532 514 212 228 526 567 585 626 410 418 442 487 805 823 783 787 813 807 786 507 792 844 879 642 880 642 647 661 690 709 703 698 691 724 1032 1082 1132 1146 1150 910 946 1008 1011 1282 1359 1198 1231 1251 1538 1266 1257 1544 1569 1612 1427 1445 1451 1435 1479 1521 1511 1493 1502 1799 1888 1719 1758 2057 2150 1950 1938 1935 2025 2356 2398 2392 2396 2188 2224 2241 2263 2560 2592 2619 2651 2628 2600 2612 2593 2592 2614 2633 2436 2531 2859 2865 2875 2870 2853 2860 2895 2889 2850 2843 2877 2691 2747 2788 2805 2764 2713 2721 2745 2720 2891 2870 2881 2872 2864 2849 2515 2664 2576 2276 2252 2191 2366 2314 2031 1968 2125 1775 1670 1818 1467 1415 1642 1563 1196 1292 958 901 1117 1066 1033 698 833 485 409 550 178 355 300 -53 119 66 16 -335 -382 -155 -256 -388 -494 -775 -493 -497 -820 -671 -752 -1067 -1129 -904 -918 -942 -959 -1022 -1380 -1219 -1259 -1208 -1164 -1187 -1219 -1245 -1556 -1601 -1638 -1608 -1550 -1260 -1547 -1612 -1652 -1444 -1795 -1848 -1806 -1494 -1462 -1429 -1648 -1658 -1438 -1419 -1617 -1579 -1627 -1471 -1491 -1438 -1642 -1602 -1608 -1631 -1424 -1410 -1616 -1628 -1632 -1652 -1458 -1522 -1511 -1437 -1611 -1595 -1608 -1566 -1549 -1555 -1579 -1596 -1600 -1563 -1558 -1557 -1262 -1248 -1266 -1275 -1277 -1554 -1588 -1279 -1244 -1249 -1198 -1389 -1393 -1161 -1225 -1253 -1234 -1226 -1238 -1161 -1341 -1348 -1167 -1228 -1240 -1255 -1227 -1158 -1378 -1175 -1250 -1238 -1166 -1363 -1301 -956 -906 -914 -959 -1017 -1284 -1285 -1010 -970 -934 -907 -1144 -1133 -905 -927 -908 -1137 -1139 -1144 -1133 -1144 -941 -1023 -1320 -1293 -962 -924 -954 -994 -966 -982 -1289 -1316 -1328 -1295 -971 -951 -957 -959 -954 -968 -965 -951 -965 -956 -1136 -1058 -1045 -1084 -1088 -1131 -930 -965 -915 -1111 -1101 -1082 -735 -879 -841 -884 -664 -698 -701 -687 -657 -642 -826 -499 -468 -501 -502 -482 -444 -436 -475 -779 -801 -804 -489 -399 -601 -601 -637 -423 -640 -569 -582 -611 -606 -613 -601 -564 -538 -535 -574 -560 -561 -569 -603 -635 -634 -593 -614 -636 -410 -421 -607 -190 -305 -279 -287 -299 -280 -263 29 99 -83 -112 78 31 -272 -309 -376 -227 -617 -446 -788 -855 -884 -657 -702 -729 -1033 -1067 -1092 -1124 -903 -921 -912 -1126 -1125 -1137 -1106 -1084 -1055 -1086 -1119 -1108 -768 -714 -749 -1025 -1028 -1093 -1131 -1103 -1051 -1039 -1082 -1116 -898 -1112 -1068 -1041 -1039 -1062 -1096 -1143 -959 -980 -958 -928 -1149 -1130 -1141 -1152 -918 -938 -912 -1099 -1026 -760 -1052 -1067 -1031 -756 -1049 -1088 -923 -949 -911 -1060 -714 -728 -731 -1040 -1081 -1055 -1030 -704 -896 -841 -468 -574 -139 31 -46 372 540 448 656 1128 1354 1425 2103 2584 3145 3499 4034 4706 4777 5397 5757 5767 6202 6225 6158 5905 5502 4937 4400 3721 3640 3033 2521 1758 919 198 -132 -693 -1261 -2066 -2232 -2477 -2872 -3126 -3308 -3904 -3840 -4161 -3742 -3493 -3238 -3186 -2698 -2524 -2628 -2193 -2048 -1940 -2098 -1722 -1851 -1466 -1566 -1184 -1349 -1007 -1122 -732 -880 -484 -400 -410 -609 -589 -397 -486 -852 -710 -1065 -1120 -1144 -1115 -1041 -725 -884 -775 -476 -497 -466 -435 -407 -407 -402 -400 -397 -628 -617 -573 -551 -560 -575 -597 -561 -225 -244 -529 -252 -547 -560 -256 -217 -190 -151 -355 -342 -359 -380 -381 -150 -232 -521 -204 -148 -158 -194 -171 -371 -382 -363 -304 -277 -313 -372 -137 -306 56 80 38 -281 -265 20 42 78 95 -117 -53 -34 257 273 339 134 380 175 245 232 169 180 245 512 528 562 540 547 545 245 536 547 545 580 634 455 772 508 469 492 791 830 853 642 641 890 707 1060 1098 1055 1099 1119 1114 1150 903 940 941 949 913 944 985 1296 1359 1365 1390 1154 1219 1274 1564 1573 1572 1608 1649 1463 1836 1694 1751 1745 1763 1744 1716 1723 1751 1763 2059 2086 2129 2170 1995 2013 2043 2315 2324 2348 2418 2215 2226 2241 2580 2601 2600 2636 2679 2672 2653 2661 2660 2639 2620 2649 2660 2677 2677 2673 2654 2686 2685 2683 2455 2462 2456 2684 2676 2659 2572 2227 2184 2378 2044 2006 1987 2174 2093 1720 1901 1820 1506 1417 1608 1259 1211 1401 1378 1308 953 1059 751 722 710 644 800 443 591 224 378 310 264 -62 -109 87 -295 -140 -200 -539 -592 -385 -430 -451 -806 -663 -757 -1084 -1143 -928 -968 -1014 -1309 -1308 -1291 -1335 -1398 -1188 -1178 -1245 -1598 -1421 -1646 -1600 -1589 -1613 -1641 -1448 -1482 -1440 -1653 -1628 -1655 -1415 -1428 -1430 -1426 -1647 -1640 -1634 -1653 -1429 -1489 -1499 -1508 -1524 -1531 -1795 -1843 -1848 -1796 -1514 -1811 -1856 -1909 -1672 -1918 -1870 -1836 -1854 -1893 -1874 -1849 -1861 -1874 -1833 -1524 -1496 -1489 -1457 -1472 -1465 -1447 -1638 -1577 -1602 -1637 -1651 -1656 -1641 -1650 -1649 -1657 -1649 -1633 -1584 -1256 -1260 -1579 -1578 -1541 -1245 -1224 -1229 -1233 -1202 -1195 -1178 -1183 -1186 -1179 -1163 -1395 -1349 -1338 -1344 -1375 -1403 -1188 -1193 -1238 -1266 -1571 -1560 -1258 -1191 -1185 -1167 -1160 -1177 -1231 -1259 -1234 -1183 -1155 -1381 -1360 -1362 -1320 -1002 -1011 -1282 -998 -986 -984 -982 -996 -979 -976 -1288 -1313 -1294 -986 -982 -1001 -1006 -1021 -1287 -1283 -1286 -1023 -992 -980 -954 -923 -929 -949 -964 -968 -947 -959 -965 -966 -973 -939 -900 -1152 -1150 -1112 -1049 -765 -766 -765 -728 -670 -657 -680 -713 -707 -704 -698 -676 -857 -813 -813 -851 -684 -726 -711 -698 -667 -880 -847 -829 -783 -511 -466 -427 -399 -402 -411 -426 -400 -390 -399 -428 -450 -460 -481 -789 -815 -788 -779 -769 -475 -448 -415 -615 -554 -240 -184 -169 -174 -170 -134 -348 -314 -307 -288 -282 -298 -359 -215 -577 -625 -426 -772 -859 -688 -1112 -1009 -1380 -1158 -1393 -1367 -1368 -1346 -1346 -1363 -1342 -1291 -999 -1010 -1289 -1006 -965 -960 -944 -897 -903 -966 -975 -934 -908 -915 -944 -960 -984 -1281 -1301 -1297 -1022 -1011 -1010 -1001 -1001 -1285 -1290 -1019 -983 -1000 -1020 -986 -952 -943 -914 -1151 -954 -1018 -1018 -964 -918 -927 -920 -1152 -1132 -1118 -1092 -1079 -1111 -898 -902 -1114 -1057 -761 -757 -1051 -1149 -932 -1122 -1029 -712 -642 -501 -583 -144 64 302 517 436 871 1029 962 1223 1833 2030 2541 3389 3733 4471 4568 5149 5291 5923 6170 6260 6152 5610 5424 4936 4459 3789 3476 3398 2884 2112 985 255 19 -466 -937 -1463 -1932 -2247 -2447 -2691 -3382 -3526 -3773 -4104 -3787 -3852 -3284 -3000 -2766 -2533 -2576 -2423 -2035 -2169 -2084 -1715 -1905 -1844 -1481 -1598 -1184 -1017 -1086 -655 -775 -399 -587 -585 -410 -488 -780 -836 -646 -668 -689 -705 -702 -708 -714 -683 -867 -815 -786 -483 -456 -459 -419 -637 -626 -602 -624 -628 -401 -411 -636 -631 -419 -429 -640 -602 -584 -574 -561 -542 -513 -205 -157 -173 -213 -219 -194 -208 -212 -148 -359 -342 -342 -334 -332 -309 -286 5 67 98 119 118 87 84 78 68 72 59 62 89 108 103 69 73 104 -113 -113 -117 -74 -69 -81 -80 -47 -14 291 322 364 377 365 367 131 154 174 202 517 549 576 594 624 401 447 494 770 479 452 475 509 789 794 811 848 659 691 740 761 740 713 701 712 746 1055 1072 1096 1143 914 946 987 1021 1288 1316 1370 1398 1404 1206 1254 1276 1556 1609 1419 1424 1434 1470 1792 1878 1904 1688 1739 1749 1721 1706 1758 2084 2155 2007 2346 2352 2350 2331 2316 2325 2362 2427 2242 2272 2268 2277 2281 2275 2274 2291 2618 2660 2626 2637 2685 2466 2467 2467 2466 2470 2449 2685 2452 2687 2675 2664 2646 2607 2564 2275 2265 2247 2426 2398 2402 2396 2331 2002 2167 2112 1769 1701 1895 1792 1430 1627 1582 1248 1398 1313 1005 941 1139 1058 724 869 509 403 593 520 172 331 -2 -96 94 58 6 -321 -183 -557 -400 -464 -794 -850 -646 -720 -1051 -1067 -1048 -1081 -915 -1296 -1155 -1258 -1538 -1264 -1250 -1268 -1557 -1563 -1567 -1569 -1596 -1646 -1427 -1474 -1817 -1881 -1903 -1899 -1887 -1869 -1861 -1865 -1847 -1842 -1853 -1906 -1706 -1728 -1705 -1674 -1683 -1690 -1683 -1704 -1744 -1703 -1897 -1867 -1862 -1900 -1674 -1681 -1907 -1896 -1918 -1696 -1697 -1887 -1860 -1901 -1667 -1869 -1833 -1836 -1892 -1909 -1919 -1896 -1880 -1888 -1878 -1885 -1882 -1666 -1920 -1679 -1667 -1669 -1899 -1859 -1873 -1871 -1856 -1815 -1511 -1485 -1466 -1453 -1437 -1659 -1602 -1602 -1626 -1644 -1425 -1439 -1410 -1600 -1269 -1225 -1226 -1228 -1213 -1210 -1231 -1250 -1256 -1268 -1540 -1562 -1542 -1252 -1243 -1233 -1213 -1215 -1211 -1204 -1203 -1221 -1254 -1271 -1235 -1198 -1160 -1376 -1359 -1356 -1366 -1322 -1289 -1288 -1288 -1019 -979 -979 -984 -967 -927 -929 -967 -991 -970 -971 -1001 -1020 -1006 -1301 -1349 -1344 -1293 -1283 -1022 -991 -966 -999 -1288 -1301 -1289 -1022 -1296 -1295 -1288 -1284 -1284 -1020 -999 -958 -954 -968 -938 -1148 -1108 -1079 -1057 -1039 -747 -660 -821 -508 -476 -450 -447 -458 -459 -422 -627 -404 -431 -460 -440 -412 -626 -594 -615 -401 -389 -614 -581 -561 -556 -544 -243 -253 -525 -244 -225 -209 -243 -522 -530 -546 -545 -514 -217 -211 -212 -214 -156 -346 -298 -267 -275 -294 -269 54 78 79 63 48 22 -289 -360 -155 -193 -527 -628 -485 -854 -690 -1026 -1038 -1038 -1065 -1106 -1107 -1127 -1141 -899 -918 -902 -915 -907 -909 -898 -898 -907 -1150 -1124 -1092 -1100 -1077 -1068 -1083 -1098 -1075 -1055 -1071 -1134 -909 -903 -931 -985 -1283 -996 -909 -1097 -1057 -1026 -767 -1047 -1056 -1061 -1048 -768 -717 -692 -705 -732 -1027 -1029 -1041 -1070 -1058 -1042 -1057 -1064 -1061 -1036 -751 -1045 -1130 -899 -1149 -1119 -1088 -1057 -1047 -1054 -757 -724 -684 -890 -803 -422 -549 -135 81 336 551 491 719 915 1370 1657 1768 2196 2724 3314 4186 4662 4961 5228 5350 5976 6258 6401 6046 5793 5655 5177 4684 3996 3857 3446 2694 2004 1172 487 265 -210 -746 -1656 -1966 -2627 -2917 -3161 -3298 -3931 -4140 -4172 -3822 -3912 -3700 -3423 -3100 -2821 -2582 -2380 -1969 -2084 -1733 -1866 -1462 -1590 -1235 -1351 -921 -750 -836 -440 -578 -519 -531 -540 -549 -575 -387 -463 -837 -669 -764 -1089 -1106 -1069 -1034 -719 -681 -857 -776 -470 -406 -619 -615 -601 -600 -591 -594 -619 -635 -610 -628 -390 -625 -578 -543 -528 -234 -211 -193 -179 -153 -131 -375 -373 -332 -301 -331 -156 -167 -142 -139 -137 -378 -346 -319 -270 25 53 86 100 108 111 110 121 -77 -45 -25 -2 -7 269 -2 -42 -56 -40 -15 297 348 380 148 163 187 208 239 527 565 592 584 563 562 574 585 571 586 610 608 617 385 419 426 430 451 481 487 497 511 510 500 480 491 781 824 880 701 747 763 766 1058 1091 1073 1065 1120 928 960 1015 1351 1167 1212 1224 1214 1251 1538 1565 1590 1588 1580 1624 1449 1810 1870 1877 1888 1904 1680 1731 2054 2090 2102 2108 2149 1954 1996 2023 2317 2355 2376 2421 2224 2290 2581 2592 2627 2673 2479 2540 2837 2854 2857 2866 2892 2927 2690 2935 2689 2704 2697 2709 2740 2769 2773 2765 2772 2736 2926 2873 2864 2880 2908 2931 2928 2916 2891 2837 2504 2682 2621 2599 2611 2589 2277 2188 2376 2041 1965 2160 2114 2068 1722 1862 1510 1442 1629 1556 1242 1195 1356 1016 947 1112 731 883 810 478 623 242 157 325 -36 107 6 -300 -360 -201 -531 -583 -403 -482 -785 -815 -862 -683 -728 -1056 -908 -992 -1000 -1002 -1020 -1332 -1402 -1232 -1606 -1660 -1430 -1470 -1502 -1512 -1473 -1437 -1417 -1442 -1452 -1442 -1451 -1453 -1436 -1426 -1420 -1427 -1414 -1413 -1430 -1451 -1455 -1478 -1519 -1535 -1526 -1533 -1797 -1793 -1522 -1795 -1846 -1864 -1837 -1813 -1825 -1837 -1821 -1805 -1517 -1512 -1493 -1490 -1495 -1503 -1488 -1449 -1418 -1409 -1660 -1651 -1664 -1645 -1631 -1606 -1604 -1610 -1611 -1594 -1584 -1628 -1426 -1435 -1452 -1431 -1625 -1568 -1549 -1563 -1571 -1569 -1586 -1592 -1553 -1261 -1242 -1239 -1217 -1185 -1178 -1202 -1213 -1187 -1197 -1199 -1179 -1178 -1196 -1217 -1189 -1167 -1182 -1185 -1164 -1176 -1167 -1392 -1372 -1380 -1399 -1393 -1368 -1361 -1365 -1373 -1358 -1327 -1307 -1300 -1019 -981 -946 -938 -922 -904 -1134 -1143 -909 -927 -925 -1152 -1131 -1138 -913 -919 -916 -907 -929 -960 -945 -927 -942 -976 -976 -967 -992 -1303 -1299 -1288 -1299 -1281 -981 -913 -901 -1138 -1095 -1065 -767 -744 -727 -728 -755 -754 -721 -708 -692 -664 -883 -869 -856 -818 -505 -486 -482 -480 -454 -408 -407 -398 -392 -609 -578 -540 -238 -218 -208 -172 -370 -324 -314 -318 -360 -154 -161 -159 -180 -211 -211 -197 -196 -210 -220 -229 -248 -539 -584 -603 -596 -535 -236 -172 -379 -354 -324 0 112 -46 -15 -19 280 313 333 330 299 281 269 -47 -99 101 28 -304 -138 -249 -411 -775 -826 -843 -876 -651 -654 -678 -684 -722 -728 -749 -1025 -758 -740 -724 -763 -1028 -742 -724 -705 -673 -681 -701 -709 -722 -692 -710 -763 -1036 -1039 -1060 -1091 -1124 -1097 -1057 -1038 -1048 -1030 -1045 -1060 -757 -718 -712 -729 -749 -728 -716 -697 -670 -657 -661 -697 -726 -717 -715 -749 -1055 -1065 -1072 -1077 -1050 -1025 -752 -754 -1030 -1042 -1047 -1056 -1081 -1074 -1060 -1059 -1045 -756 -666 -828 -443 -563 -181 -287 -48 186 406 839 1037 974 1383 1623 1719 2400 2926 3296 4178 4706 4827 5092 5664 5793 6109 6523 6522 6120 5836 5691 5203 4644 4112 3694 2996 2448 1914 912 623 115 -772 -1560 -2032 -2533 -3168 -3236 -3575 -4169 -4077 -4374 -4035 -4108 -3579 -3282 -2990 -2705 -2471 -2280 -2370 -1949 -1751 -1855 -1485 -1632 -1258 -1379 -953 -1055 -875 -498 -416 -623 -600 -627 -430 -504 -833 -645 -695 -725 -745 -1030 -1027 -1027 -747 -714 -892 -847 -772 -466 -402 -610 -584 -609 -623 -611 -569 -556 -584 -596 -635 -422 -424 -637 -547 -191 -377 -340 -321 -318 -310 -288 -285 7 9 68 100 79 -276 -344 -379 -382 -374 -352 -329 -345 -347 -313 -268 -261 1 -258 -282 -322 -280 66 -105 -87 -61 -32 -2 261 268 286 262 -39 268 308 337 359 132 181 228 242 253 527 527 244 245 548 588 599 615 635 405 407 460 772 826 849 881 881 875 845 875 655 674 690 742 1051 1101 1114 1131 896 1144 897 951 1281 1347 1346 1355 1162 1232 1268 1578 1625 1646 1662 1656 1628 1624 1596 1598 1592 1602 1626 1489 1847 1909 1689 1735 1782 1772 1728 1747 2072 2096 2094 2113 1936 2045 2375 2424 2208 2199 2196 2196 2257 2569 2615 2650 2456 2511 2550 2837 2872 2880 2826 2544 2559 2881 2905 2696 2702 2689 2941 2703 2711 2744 2735 2711 2714 2918 2817 2497 2514 2545 2832 2871 2693 2711 2914 2858 2835 2549 2498 2457 2622 2303 2239 2409 2326 2025 1964 1942 1968 2162 2054 1674 1849 1476 1593 1219 1382 1284 955 930 1149 1074 694 821 501 482 407 554 174 293 -81 109 57 -279 -383 -188 -231 -576 -441 -777 -834 -857 -649 -738 -1070 -1117 -1140 -1128 -1123 -955 -1024 -1312 -1321 -1337 -1388 -1188 -1232 -1257 -1274 -1575 -1561 -1572 -1627 -1416 -1460 -1505 -1793 -1526 -1480 -1430 -1450 -1497 -1514 -1533 -1812 -1803 -1536 -1821 -1831 -1533 -1458 -1658 -1645 -1612 -1566 -1589 -1637 -1661 -1650 -1651 -1661 -1452 -1471 -1470 -1492 -1495 -1440 -1663 -1443 -1493 -1531 -1508 -1459 -1455 -1505 -1519 -1460 -1661 -1633 -1645 -1661 -1595 -1256 -1256 -1592 -1630 -1621 -1622 -1606 -1579 -1538 -1280 -1584 -1592 -1554 -1545 -1572 -1553 -1267 -1236 -1220 -1220 -1561 -1612 -1591 -1550 -1214 -1182 -1197 -1175 -1388 -1380 -1404 -1155 -1155 -1167 -1171 -1156 -1380 -1356 -1342 -1358 -1393 -1170 -1162 -1394 -1348 -1319 -1292 -1282 -1302 -1328 -1281 -966 -959 -970 -973 -984 -971 -953 -969 -978 -979 -980 -1013 -1016 -1010 -1007 -995 -962 -1133 -1092 -901 -948 -980 -989 -977 -932 -1141 -1126 -904 -1142 -1083 -1051 -1047 -1072 -1107 -898 -913 -927 -913 -904 -953 -966 -906 -1122 -1085 -1059 -1082 -1105 -1068 -737 -683 -702 -713 -674 -867 -852 -828 -827 -835 -819 -770 -461 -438 -409 -413 -635 -563 -567 -421 -784 -509 -438 -597 -528 -240 -252 -513 -242 -158 -369 -135 -171 -166 -136 -137 -142 -149 -175 -225 -527 -572 -585 -605 -614 -559 -234 -194 -153 -340 14 48 58 98 -117 -103 -67 -6 279 266 -50 -110 109 85 22 -309 -141 -219 -588 -450 -785 -852 -891 -660 -717 -1038 -1082 -1062 -766 -748 -733 -708 -695 -702 -723 -720 -725 -740 -765 -1048 -1028 -731 -683 -655 -671 -732 -1068 -1114 -1065 -763 -756 -737 -720 -712 -719 -754 -1041 -1086 -1033 -689 -883 -867 -808 -825 -869 -676 -710 -714 -696 -689 -702 -702 -676 -870 -845 -896 -737 -1064 -1077 -1099 -1133 -898 -1138 -1149 -1136 -1090 -1083 -1096 -1118 -1118 -1101 -1085 -1071 -1079 -1089 -1105 -1086 -1051 -752 -896 -485 -576 -370 113 334 545 446 835 692 1084 1337 1433 2110 2612 2969 3866 4422 4893 4993 5357 5768 6044 6515 6368 6275 6238 5556 5019 4719 3973 3857 3257 2730 2175 1323 392 103 -424 -1288 -1686 -2207 -2491 -2936 -2975 -3635 -3899 -3757 -3795 -3947 -3481 -3207 -3174 -2898 -2630 -2370 -1965 -2114 -1783 -1684 -1800 -1436 -1621 -1224 -1319 -1149 -768 -889 -796 -782 -488 -418 -596 -574 -388 -482 -775 -881 -736 -1028 -1034 -1076 -1065 -707 -866 -819 -812 -503 -494 -481 -437 -385 -602 -622 -575 -524 -524 -545 -518 -187 -162 -183 -249 -535 -542 -524 -224 -164 -384 -370 -333 -301 -302 -340 -305 -280 -266 13 26 20 -297 -282 85 -81 -81 127 115 -71 272 316 310 282 -36 -102 -109 -61 261 294 299 293 296 343 365 375 150 194 248 541 549 239 184 178 516 554 562 572 625 417 407 423 439 429 413 454 492 790 782 509 781 818 855 872 641 878 648 672 889 862 844 879 703 1024 1076 1145 925 945 989 1318 1348 1388 1377 1361 1396 1157 1206 1226 1242 1234 1256 1592 1658 1444 1467 1492 1476 1474 1525 1839 1883 1902 1898 1736 1783 2067 2049 2092 2160 2104 2099 2145 1994 2319 2370 2427 2376 2326 2342 2373 2377 2429 2213 2292 2651 2455 2669 2667 2454 2459 2465 2474 2512 2557 2533 2826 2829 2553 2533 2541 2827 2835 2553 2492 2493 2492 2476 2480 2479 2444 2671 2676 2676 2651 2624 2664 2674 2589 2191 2418 2193 2415 2342 1927 1785 1687 1686 1704 1911 1818 1460 1622 1272 1166 1291 940 1092 1026 707 689 683 892 784 430 597 231 363 282 261 -54 68 -136 -583 -407 -427 -423 -493 -859 -688 -733 -1032 -1061 -1146 -1002 -1288 -1335 -1356 -1334 -1018 -1019 -1290 -1017 -1013 -1013 -1329 -1157 -1235 -1241 -1252 -1249 -1259 -1543 -1616 -1659 -1421 -1461 -1509 -1490 -1434 -1419 -1431 -1456 -1452 -1434 -1439 -1444 -1487 -1469 -1441 -1420 -1639 -1623 -1620 -1594 -1594 -1646 -1438 -1434 -1418 -1413 -1418 -1413 -1622 -1603 -1570 -1246 -1232 -1548 -1645 -1422 -1644 -1606 -1577 -1592 -1587 -1607 -1603 -1588 -1643 -1420 -1619 -1272 -1278 -1580 -1594 -1557 -1251 -1205 -1396 -1385 -1166 -1213 -1257 -1252 -1248 -1252 -1242 -1217 -1156 -1346 -1303 -1310 -1321 -1376 -1374 -1326 -1288 -1282 -1309 -1005 -944 -920 -962 -1018 -1019 -1015 -1002 -1328 -1339 -1327 -1310 -1287 -989 -1304 -1407 -1157 -1351 -1329 -1015 -1141 -1129 -897 -957 -964 -948 -939 -929 -1124 -1086 -1051 -1056 -1132 -1147 -908 -976 -985 -932 -1139 -1039 -723 -729 -754 -1079 -1111 -1098 -1058 -1050 -1072 -1048 -745 -718 -681 -871 -832 -825 -834 -653 -737 -756 -701 -657 -703 -750 -1046 -1053 -751 -641 -830 -832 -862 -867 -868 -851 -846 -510 -447 -400 -616 -415 -465 -436 -392 -394 -438 -463 -437 -408 -601 -516 -256 -245 -229 -199 -213 -246 -228 -204 -204 -184 -142 -164 -384 -361 -377 -135 -229 -564 -563 -578 -589 -548 -232 -166 -140 -369 -286 67 123 -85 -24 -12 -56 -69 -79 -72 -66 -51 -51 -88 -114 -106 84 -354 -539 -390 -491 -815 -503 -435 -430 -436 -770 -882 -726 -736 -703 -693 -750 -1108 -1125 -749 -660 -676 -720 -738 -751 -721 -734 -746 -763 -763 -759 -734 -694 -678 -714 -689 -649 -652 -667 -651 -878 -873 -890 -661 -708 -750 -1042 -1050 -1053 -740 -651 -830 -836 -802 -804 -827 -848 -848 -853 -831 -783 -785 -838 -855 -809 -498 -509 -777 -425 -386 -427 -505 -805 -811 -815 -864 -836 -489 -417 -585 -517 -173 -315 69 302 557 499 683 1131 1286 1204 1434 1742 2398 2927 3269 4130 4618 4940 5016 5658 5993 6224 6039 6212 5943 5258 4989 4260 4192 3922 3626 3116 2336 1250 810 313 -191 -705 -1221 -1875 -2134 -2353 -2652 -3117 -3255 -3461 -3568 -3491 -3307 -3336 -2810 -2555 -2565 -2386 -2008 -2139 -1785 -1726 -1675 -1844 -1443 -1265 -1392 -980 -1050 -889 -503 -640 -594 -547 -256 -212 -192 -513 -606 -424 -494 -819 -877 -889 -882 -859 -825 -503 -639 -566 -231 -152 -362 -325 -348 -159 -212 -521 -537 -247 -254 -624 -454 -422 -583 -245 -218 -186 -157 -166 -158 -131 -141 -184 -185 -159 -164 -186 -146 -310 -268 -277 -311 -326 -306 -284 7 38 64 78 98 102 61 47 83 -84 -33 256 267 -9 -30 -51 -74 -67 -30 281 295 293 268 276 313 365 157 209 220 233 515 537 548 534 527 553 615 399 412 411 411 438 466 498 816 831 821 810 510 496 804 854 655 706 698 658 654 721 1095 896 936 974 994 970 964 983 980 960 965 1021 1340 1375 1188 1242 1244 1246 1556 1611 1650 1438 1491 1795 1832 1814 1811 1857 1903 1680 1732 1777 1772 1756 1752 2061 2135 2143 2134 2136 2146 1985 2359 2179 2203 2206 2254 2587 2578 2567 2582 2655 2460 2486 2535 2833 2859 2859 2822 2529 2526 2536 2537 2536 2816 2554 2832 2863 2832 2520 2454 2658 2626 2580 2592 2618 2636 2614 2610 2579 2258 2188 2378 2362 2333 2018 1945 2154 2132 2104 1775 1712 1903 1805 1493 1470 1436 1573 1407 1303 983 907 1078 731 643 818 459 631 546 184 353 270 -48 113 27 -272 -331 -205 -620 -417 -435 -436 -465 -784 -893 -745 -1035 -1056 -1095 -1114 -1143 -916 -986 -1299 -1338 -1378 -1157 -1222 -1240 -1231 -1221 -1226 -1240 -1227 -1227 -1257 -1254 -1260 -1270 -1574 -1420 -1443 -1464 -1485 -1481 -1465 -1420 -1637 -1637 -1631 -1627 -1600 -1590 -1568 -1271 -1556 -1570 -1594 -1642 -1436 -1410 -1605 -1602 -1635 -1607 -1593 -1631 -1655 -1658 -1419 -1430 -1440 -1418 -1644 -1629 -1544 -1213 -1169 -1225 -1569 -1609 -1543 -1217 -1208 -1200 -1212 -1220 -1231 -1272 -1553 -1539 -1228 -1193 -1176 -1200 -1238 -1249 -1243 -1246 -1213 -1170 -1367 -1316 -1310 -1008 -936 -923 -977 -1014 -999 -988 -1005 -999 -970 -938 -920 -1147 -1125 -924 -968 -988 -969 -977 -994 -999 -987 -980 -994 -972 -929 -898 -1149 -1130 -1088 -1049 -1038 -760 -1027 -1065 -1124 -929 -909 -1120 -1108 -1105 -1076 -1074 -1094 -1082 -1080 -1078 -1115 -1097 -1105 -1110 -1110 -1039 -719 -717 -752 -1042 -1053 -1056 -1069 -1085 -1044 -1044 -1097 -1089 -1025 -721 -689 -672 -667 -675 -697 -725 -648 -840 -814 -810 -482 -436 -446 -451 -419 -610 -605 -616 -632 -606 -573 -548 -561 -558 -580 -574 -558 -548 -577 -582 -256 -221 -226 -195 -164 -139 -160 -170 -177 -161 -129 -372 -366 -367 -137 -140 -378 -169 -219 -225 -207 -194 -209 -198 -151 -365 -284 51 -109 -57 -93 -71 -58 -58 -39 -20 -14 -53 126 73 0 -345 -169 -524 -612 -441 -806 -843 -864 -641 -689 -749 -1027 -1045 -1037 -719 -662 -872 -875 -882 -870 -657 -706 -708 -671 -644 -675 -887 -852 -829 -862 -695 -742 -1034 -1036 -1038 -752 -756 -765 -745 -750 -1036 -1051 -1038 -1035 -1064 -1088 -1068 -760 -682 -673 -659 -674 -707 -762 -1037 -732 -715 -660 -887 -896 -664 -679 -884 -846 -810 -791 -792 -842 -660 -707 -722 -721 -752 -1033 -724 -678 -889 -887 -875 -782 -430 -590 -181 82 353 598 835 1038 976 1185 1472 2091 2235 2786 3651 3976 4689 4740 5054 5689 6008 6248 6081 6257 5983 5286 4838 4631 4213 3577 3442 2721 1997 1152 499 308 -187 -716 -1568 -2092 -2211 -2446 -2926 -3064 -3476 -3957 -3756 -3926 -3504 -3269 -2987 -2696 -2673 -2430 -1971 -2066 -1703 -1865 -1495 -1622 -1280 -1206 -1361 -965 -1087 -679 -485 -588 -542 -545 -540 -525 -530 -608 -441 -505 -844 -680 -747 -1043 -1027 -706 -883 -797 -490 -426 -623 -579 -546 -544 -513 -201 -203 -241 -247 -251 -538 -545 -539 -240 -210 -193 -170 -364 -353 -358 -352 -354 -331 -323 -334 -328 -307 -313 -314 -319 -330 -335 -278 53 78 48 20 14 -268 -290 0 82 -68 263 313 319 294 268 272 307 327 319 316 360 334 313 301 297 328 345 357 144 215 243 523 552 553 567 591 607 585 545 241 242 518 573 397 467 492 456 464 782 844 873 645 651 646 888 647 690 698 745 1069 900 912 904 913 917 942 979 1007 1295 1343 1357 1353 1371 1396 1186 1249 1277 1543 1554 1574 1616 1418 1445 1477 1518 1816 1865 1905 1689 1689 1673 1684 1714 1739 1788 2109 2173 1954 1961 1990 2009 2009 2017 2031 2315 2368 2176 2247 2601 2646 2619 2591 2599 2613 2625 2664 2684 2686 2477 2532 2849 2872 2864 2839 2821 2821 2822 2829 2834 2824 2825 2554 2548 2548 2539 2543 2824 2823 2524 2474 2446 2656 2562 2193 2390 2350 2312 2039 2022 1968 2135 2055 1713 1866 1510 1437 1605 1255 1156 1315 973 1143 1046 718 653 811 467 414 616 517 132 282 -58 109 13 -320 -147 -246 -609 -443 -781 -837 -880 -686 -761 -1082 -897 -907 -1118 -1131 -930 -976 -1015 -1010 -994 -1014 -1335 -1198 -1257 -1237 -1239 -1577 -1664 -1437 -1434 -1446 -1463 -1494 -1522 -1533 -1533 -1527 -1524 -1794 -1799 -1514 -1488 -1491 -1804 -1828 -1799 -1525 -1514 -1507 -1517 -1535 -1814 -1823 -1817 -1797 -1807 -1822 -1805 -1820 -1838 -1836 -1801 -1506 -1487 -1516 -1523 -1795 -1803 -1508 -1472 -1468 -1432 -1646 -1626 -1651 -1451 -1484 -1474 -1472 -1481 -1466 -1444 -1435 -1426 -1657 -1621 -1609 -1629 -1634 -1616 -1608 -1588 -1553 -1269 -1260 -1261 -1250 -1246 -1222 -1224 -1212 -1185 -1191 -1199 -1192 -1199 -1217 -1224 -1207 -1204 -1222 -1268 -1550 -1280 -1247 -1247 -1230 -1221 -1211 -1215 -1206 -1189 -1183 -1199 -1194 -1204 -1213 -1185 -1373 -1326 -1322 -1314 -1315 -1328 -1337 -1336 -1021 -945 -915 -928 -981 -1305 -1324 -1313 -1283 -992 -954 -936 -910 -922 -988 -1290 -1295 -1012 -1007 -1292 -1289 -1012 -1005 -1000 -970 -927 -910 -912 -920 -905 -913 -923 -940 -959 -999 -1320 -1356 -1303 -960 -929 -909 -1127 -1091 -1106 -1097 -1063 -1041 -1053 -1033 -719 -675 -645 -857 -830 -824 -782 -485 -453 -449 -421 -597 -548 -565 -576 -587 -586 -563 -534 -251 -209 -206 -203 -170 -147 -188 -227 -227 -198 -164 -149 -164 -175 -210 -233 -218 -198 -213 -197 -159 -364 -370 -371 -343 -322 -304 24 116 -85 -55 -63 -51 -39 -56 -73 -115 86 33 -302 -371 -147 -217 -604 -476 -837 -664 -711 -714 -706 -714 -743 -736 -742 -754 -766 -757 -757 -763 -1041 -1054 -1039 -1046 -1063 -1067 -1066 -1085 -1105 -1112 -1099 -1101 -1135 -1131 -1097 -1088 -1147 -918 -900 -1134 -1144 -1118 -1091 -1087 -1073 -1025 -754 -765 -1043 -1068 -1077 -1054 -1076 -1072 -1095 -1131 -948 -972 -971 -913 -1133 -1075 -1062 -1079 -1073 -1060 -1046 -1028 -753 -723 -701 -718 -757 -1025 -757 -764 -1025 -734 -704 -713 -720 -667 -810 -448 -541 -355 -126 328 556 837 1130 1340 1264 1499 2107 2291 3116 3530 4399 4576 4853 5098 5677 5783 6057 6441 6098 5797 5374 5137 4619 4185 3567 3200 2731 2008 1168 784 316 -218 -1110 -1828 -2405 -2862 -3156 -3391 -3491 -3829 -4005 -4027 -4176 -3751 -3515 -3223 -3193 -2923 -2442 -2231 -2316 -2143 -1772 -1902 -1523 -1635 -1233 -1316 -1146 -747 -882 -504 -408 -608 -594 -602 -391 -442 -508 -831 -648 -708 -744 -704 -685 -693 -686 -656 -856 -502 -408 -580 -249 -235 -210 -182 -220 -566 -636 -608 -591 -602 -389 -426 -386 -637 -612 -603 -570 -534 -522 -222 -132 -282 3 -262 -295 -312 -293 30 73 75 37 -257 -283 -264 -282 -288 -288 -337 -338 -297 8 66 91 121 -98 -110 -88 -59 -34 -7 265 304 346 357 380 140 154 154 150 161 184 221 247 523 533 236 225 248 512 542 569 615 400 403 413 440 496 771 784 805 845 894 668 727 1026 742 736 738 761 1031 1064 1090 1097 1081 1086 1122 1131 896 907 931 971 984 1001 1330 1381 1384 1158 1234 1276 1256 1236 1258 1610 1448 1485 1480 1488 1516 1838 1918 1704 1741 1765 2072 2116 2160 1944 1981 2021 2041 2034 2027 2327 2395 2195 2249 2250 2245 2260 2303 2612 2647 2432 2485 2507 2526 2543 2843 2881 2895 2874 2888 2905 2913 2939 2701 2700 2928 2935 2705 2725 2725 2713 2713 2730 2748 2756 2748 2706 2921 2873 2844 2839 2559 2525 2495 2461 2644 2579 2274 2246 2229 2213 2378 1996 2111 1715 1846 1487 1419 1596 1549 1230 1392 1017 901 1046 684 839 502 411 571 238 179 129 304 -2 -31 -88 71 -305 -383 -189 -537 -615 -411 -455 -780 -840 -881 -648 -708 -1030 -1064 -1123 -919 -968 -1286 -1334 -1373 -1396 -1379 -1376 -1185 -1242 -1280 -1569 -1599 -1598 -1595 -1600 -1619 -1628 -1622 -1620 -1639 -1417 -1421 -1651 -1646 -1664 -1453 -1492 -1475 -1465 -1470 -1483 -1518 -1521 -1491 -1471 -1484 -1499 -1475 -1458 -1448 -1423 -1651 -1652 -1655 -1419 -1434 -1420 -1422 -1439 -1659 -1627 -1638 -1632 -1602 -1557 -1556 -1575 -1574 -1575 -1595 -1596 -1554 -1564 -1612 -1643 -1612 -1574 -1566 -1568 -1555 -1252 -1223 -1208 -1221 -1227 -1244 -1248 -1203 -1205 -1212 -1183 -1384 -1349 -1328 -1321 -1302 -1018 -1288 -1317 -1326 -1317 -1343 -1353 -1334 -1320 -1315 -1305 -1022 -999 -968 -942 -934 -950 -990 -1014 -992 -972 -968 -968 -961 -964 -976 -971 -977 -983 -987 -979 -963 -943 -921 -1150 -1131 -1142 -899 -903 -1145 -1142 -900 -1137 -1104 -1108 -1117 -1100 -1062 -1035 -1044 -1046 -768 -1037 -1074 -1102 -1110 -1105 -1087 -1081 -1079 -1059 -1056 -1070 -1068 -1067 -1055 -767 -740 -718 -708 -673 -651 -654 -674 -653 -865 -652 -752 -1084 -1070 -746 -704 -676 -658 -652 -653 -893 -856 -812 -506 -477 -451 -450 -447 -427 -387 -586 -544 -521 -224 -181 -172 -164 -141 -370 -370 -134 -328 -140 -163 -146 -354 -328 -334 -320 -286 -272 -275 -307 -322 -336 -358 -357 -298 -260 -262 5 45 111 -73 -24 264 306 356 358 338 337 314 286 268 -24 -63 -91 -85 126 36 -295 -343 -174 -603 -776 -857 -651 -712 -752 -737 -760 -1069 -1134 -910 -906 -899 -1106 -1044 -1039 -1110 -902 -907 -912 -921 -925 -900 -1111 -1082 -1062 -1040 -1040 -1038 -1049 -1076 -1091 -1103 -1070 -1049 -1106 -925 -932 -914 -1099 -1040 -766 -765 -1058 -1104 -1091 -1051 -1068 -1146 -946 -950 -951 -938 -911 -1143 -1150 -918 -917 -902 -899 -899 -908 -910 -928 -927 -897 -1103 -1101 -1137 -1149 -1122 -1095 -1074 -1044 -1048 -1076 -1084 -1050 -706 -844 -434 -244 -299 -93 135 598 771 740 960 1183 1432 1715 2396 2748 3695 4054 4532 4859 5420 5564 6213 6469 6336 6287 6251 5536 5026 4725 3986 3849 3216 2739 2027 1217 811 257 -568 -993 -1775 -2657 -3077 -3343 -3594 -3912 -4201 -4079 -4084 -4004 -3800 -3510 -3449 -3146 -2918 -2464 -2287 -2416 -2305 -2153 -1757 -1900 -1796 -1602 -1375 -954 -1057 -650 -807 -495 -441 -453 -511 -849 -663 -657 -643 -654 -674 -703 -748 -1034 -765 -728 -695 -704 -727 -687 -866 -810 -794 -786 -770 -500 -506 -492 -465 -469 -512 -793 -510 -507 -800 -499 -628 -568 -578 -591 -565 -535 -253 -209 -147 -381 -144 -169 -175 -184 -216 -195 -147 -366 -338 -312 -298 -297 -297 -257 48 59 45 21 37 58 87 109 105 41 6 45 105 -97 -94 -121 -122 -103 -90 -70 -57 -73 -89 -53 262 357 159 174 172 135 347 355 382 166 168 201 239 578 429 489 809 830 790 494 476 504 494 768 867 672 658 667 696 733 759 1031 1096 897 944 960 970 966 934 932 967 1013 1292 1354 1402 1170 1213 1263 1566 1624 1420 1463 1525 1799 1814 1855 1906 1911 1864 1849 1859 1669 1728 2061 2140 2149 2101 2114 2161 1980 1961 1963 2005 2034 2307 2388 2199 2211 2237 2301 2634 2677 2438 2440 2461 2443 2440 2487 2847 2910 2910 2927 2908 2890 2906 2902 2919 2897 2893 2870 2883 2902 2856 2526 2512 2513 2540 2535 2507 2488 2468 2439 2623 2290 2227 2221 2277 2262 2191 2316 1958 2103 1753 1692 1675 1898 1844 1522 1656 1274 1388 987 903 1066 732 666 885 808 443 400 610 245 371 296 -18 -125 33 3 -272 -269 -383 -528 -616 -463 -809 -884 -704 -746 -1065 -899 -971 -1288 -1347 -1383 -1200 -1262 -1264 -1259 -1275 -1566 -1567 -1591 -1653 -1413 -1628 -1539 -1239 -1202 -1260 -1653 -1496 -1464 -1413 -1414 -1444 -1663 -1628 -1650 -1652 -1420 -1431 -1435 -1450 -1476 -1483 -1450 -1424 -1423 -1469 -1518 -1489 -1442 -1424 -1640 -1600 -1631 -1427 -1429 -1433 -1459 -1473 -1442 -1637 -1633 -1648 -1605 -1569 -1544 -1539 -1277 -1542 -1564 -1608 -1648 -1649 -1644 -1629 -1587 -1579 -1551 -1575 -1621 -1586 -1262 -1243 -1187 -1391 -1397 -1177 -1222 -1247 -1268 -1268 -1561 -1567 -1557 -1557 -1253 -1196 -1397 -1381 -1171 -1210 -1212 -1236 -1268 -1277 -1274 -1233 -1206 -1170 -1382 -1345 -1310 -1021 -1018 -1012 -1008 -1006 -1018 -1323 -1322 -1329 -1314 -1320 -1316 -1291 -1018 -1008 -1006 -1282 -1286 -1302 -1288 -992 -981 -969 -966 -953 -931 -934 -914 -1141 -1134 -1133 -1141 -900 -1108 -1111 -1144 -902 -922 -972 -1283 -1307 -1022 -1006 -973 -1147 -1142 -943 -971 -959 -945 -947 -898 -1112 -1137 -933 -1300 -1299 -1018 -1285 -974 -913 -908 -920 -1127 -1057 -753 -715 -668 -896 -650 -896 -783 -501 -801 -817 -803 -799 -465 -428 -420 -420 -430 -419 -403 -409 -416 -416 -389 -624 -630 -625 -557 -517 -200 -157 -180 -238 -529 -551 -527 -243 -236 -246 -514 -545 -531 -213 -374 -329 -377 -153 -347 -295 -263 3 44 -126 -74 -24 274 294 279 282 271 268 -26 127 10 -334 -376 -171 -528 -594 -638 -443 -780 -871 -717 -1103 -905 -1111 -1077 -1043 -1026 -1042 -1025 -1045 -1075 -1107 -940 -964 -1134 -1032 -751 -1064 -1080 -753 -690 -708 -1025 -1036 -1077 -1132 -1114 -1034 -737 -1031 -759 -735 -753 -753 -737 -719 -669 -668 -892 -829 -809 -863 -688 -759 -1039 -1097 -1109 -1070 -758 -1028 -1050 -1072 -1115 -1118 -1050 -764 -1042 -1085 -1088 -1058 -1054 -1028 -753 -756 -1042 -1033 -729 -729 -743 -735 -672 -884 -881 -882 -819 -770 -446 -573 -165 -311 -122 291 180 395 661 928 1161 1461 1755 2327 2519 3329 3926 4448 4587 5182 5294 5929 6220 6449 6486 6057 5763 5632 5130 4609 4192 3872 3271 2937 2131 1392 769 -35 -603 -980 -1881 -2315 -2582 -2537 -3161 -3590 -3884 -3794 -3821 -3921 -3683 -3396 -3120 -2875 -2575 -2324 -1924 -2054 -1865 -1646 -1261 -1245 -1234 -1182 -1373 -899 -652 -463 -633 -583 -559 -569 -576 -600 -402 -451 -483 -823 -651 -710 -1027 -1060 -1082 -1037 -738 -651 -794 -465 -430 -612 -523 -217 -231 -557 -597 -633 -392 -623 -550 -534 -562 -599 -594 -553 -513 -199 -366 -295 -286 5 54 113 -103 -120 -114 -92 -127 86 71 37 -306 -370 -362 -315 -294 5 34 61 90 95 69 44 55 55 -122 -93 -93 -75 -54 259 283 291 330 130 162 160 153 183 141 357 143 196 226 249 555 587 622 437 490 783 772 506 799 857 846 805 832 852 880 866 848 822 812 859 882 640 686 732 731 705 750 1122 991 1316 1292 966 983 1017 1293 1313 1334 1327 1304 1324 1154 1263 1596 1594 1549 1225 1230 1543 1614 1654 1658 1429 1519 1829 1866 1684 1759 2096 2149 1955 2024 2026 2005 1967 1922 2159 2163 1923 1967 2015 2317 2355 2363 2321 2040 2333 2392 2418 2185 2187 2217 2271 2637 2532 2879 2860 2535 2450 2440 2470 2527 2556 2845 2891 2862 2542 2519 2539 2549 2518 2524 2519 2476 2464 2457 2655 2630 2623 2654 2650 2575 2278 2571 2262 2376 2045 2031 1985 2142 1773 1718 1893 1523 1417 1625 1612 1272 1393 1324 985 1127 764 656 801 399 585 554 530 208 343 263 -43 109 33 4 -283 -367 -206 -557 -400 -512 -823 -862 -875 -861 -874 -680 -1038 -1115 -931 -990 -982 -947 -949 -996 -987 -981 -1330 -1155 -1197 -1247 -1223 -1183 -1195 -1198 -1219 -1249 -1245 -1236 -1254 -1251 -1223 -1194 -1265 -1604 -1619 -1632 -1428 -1442 -1617 -1635 -1444 -1434 -1625 -1631 -1661 -1425 -1434 -1446 -1476 -1517 -1461 -1430 -1661 -1643 -1609 -1608 -1607 -1600 -1601 -1610 -1660 -1614 -1597 -1584 -1554 -1235 -1218 -1246 -1540 -1562 -1558 -1264 -1226 -1236 -1246 -1269 -1264 -1202 -1400 -1395 -1167 -1156 -1404 -1186 -1228 -1205 -1401 -1331 -1323 -1024 -1005 -1285 -1306 -976 -922 -938 -991 -1006 -1014 -1293 -1291 -1000 -971 -967 -976 -979 -999 -1001 -1003 -992 -981 -963 -915 -920 -954 -1001 -1014 -968 -908 -940 -988 -1283 -983 -963 -926 -917 -1149 -1104 -900 -926 -912 -1094 -1122 -1140 -1129 -1107 -1122 -1131 -1045 -1025 -754 -1045 -1060 -1033 -761 -1037 -1047 -1053 -1086 -1078 -742 -724 -723 -651 -886 -683 -1029 -1084 -1083 -1061 -1041 -1053 -1082 -1095 -1082 -1053 -1055 -1077 -1132 -1119 -1074 -1085 -1055 -726 -724 -666 -836 -501 -504 -779 -769 -465 -440 -440 -469 -448 -626 -590 -597 -636 -630 -630 -581 -531 -523 -537 -608 -626 -597 -595 -557 -248 -233 -237 -222 -203 -209 -206 -210 -189 -164 -185 -191 -169 -155 -178 -250 -238 -209 -148 -320 -277 -296 -309 -302 45 97 -109 -118 120 87 23 -297 -316 -347 -369 -166 -516 -587 -413 -461 -483 -820 -659 -734 -1025 -727 -706 -753 -1038 -1053 -1037 -734 -708 -726 -729 -1029 -764 -748 -743 -709 -719 -706 -720 -733 -722 -678 -666 -703 -711 -729 -1041 -1069 -1072 -1031 -1046 -748 -752 -1030 -1095 -1135 -1114 -1106 -1084 -1100 -905 -1128 -1092 -1068 -746 -714 -739 -742 -747 -1029 -1033 -1043 -1027 -767 -750 -738 -718 -727 -715 -665 -882 -882 -675 -684 -889 -878 -643 -672 -877 -815 -451 -592 -195 -297 -124 277 209 391 804 732 913 1172 1488 2121 2573 2812 3640 4197 4347 4905 5206 5296 5607 5847 5843 5900 5320 5160 4647 4199 3901 3647 3041 2672 1831 1035 221 9 -506 -1337 -1878 -2039 -2290 -2463 -2755 -3434 -3485 -3934 -3728 -3857 -3621 -3336 -2757 -2503 -2278 -2391 -2320 -1979 -2133 -2061 -1739 -1665 -1527 -1613 -1191 -1324 -941 -756 -874 -779 -459 -410 -637 -431 -438 -478 -784 -829 -655 -700 -736 -750 -703 -677 -682 -648 -817 -404 -584 -551 -516 -207 -229 -555 -547 -538 -522 -212 -216 -554 -579 -555 -226 -197 -249 -255 -226 -224 -222 -206 -219 -195 -190 -150 -382 -314 -261 -270 -288 -273 25 59 79 54 8 19 81 103 101 101 76 52 66 79 113 -110 -68 -72 -85 121 90 75 84 100 102 -100 -45 262 293 313 355 158 193 217 217 242 235 201 234 544 548 552 572 550 241 526 608 393 395 394 393 391 637 412 470 777 819 850 656 694 711 725 756 1077 1092 1128 926 965 956 976 1293 1334 1367 1385 1393 1379 1377 1366 1369 1384 1394 1392 1162 1249 1577 1629 1415 1421 1433 1477 1534 1808 1797 1533 1848 1678 1791 2157 1963 2170 2082 2078 1925 1987 2003 2031 2039 2028 2010 2030 2355 2399 2390 2364 2375 2412 2200 2246 2292 2300 2292 2290 2275 2279 2297 2590 2608 2610 2607 2638 2651 2629 2614 2600 2589 2290 2247 2206 2201 2189 2387 2313 2308 2044 2003 1948 2165 2105 1771 1710 1912 1843 1471 1574 1241 1204 1163 1370 1324 1012 933 1120 1061 706 825 429 574 516 200 369 322 277 -54 120 64 -284 -148 -513 -573 -624 -451 -800 -871 -668 -1028 -1104 -1150 -973 -1305 -1363 -1401 -1162 -1200 -1230 -1227 -1230 -1249 -1542 -1585 -1661 -1439 -1472 -1506 -1795 -1815 -1802 -1519 -1803 -1851 -1884 -1861 -1846 -1868 -1906 -1902 -1895 -1920 -1715 -1736 -1706 -1680 -1901 -1889 -1885 -1884 -1889 -1891 -1909 -1686 -1701 -1672 -1904 -1668 -1700 -1719 -1696 -1688 -1674 -1910 -1688 -1751 -1732 -1916 -1846 -1872 -1685 -1703 -1697 -1684 -1676 -1891 -1821 -1516 -1496 -1498 -1512 -1798 -1810 -1793 -1529 -1535 -1800 -1513 -1479 -1475 -1488 -1452 -1653 -1610 -1568 -1543 -1541 -1540 -1547 -1558 -1592 -1609 -1592 -1574 -1597 -1615 -1628 -1436 -1480 -1473 -1446 -1426 -1416 -1442 -1433 -1660 -1631 -1633 -1617 -1576 -1570 -1564 -1540 -1244 -1242 -1249 -1237 -1186 -1154 -1403 -1397 -1368 -1357 -1354 -1314 -1015 -1005 -1024 -1017 -982 -974 -974 -981 -994 -1292 -1345 -1344 -1302 -995 -994 -1282 -1296 -1293 -1306 -1333 -1367 -1395 -1392 -1373 -1324 -1305 -1309 -1284 -1020 -1019 -1014 -1293 -1283 -990 -1000 -1281 -1291 -1295 -1299 -1019 -972 -947 -936 -1138 -1044 -758 -1025 -758 -716 -680 -655 -883 -864 -839 -842 -818 -799 -805 -823 -819 -784 -507 -495 -470 -389 -585 -569 -562 -545 -527 -543 -561 -563 -576 -609 -391 -415 -432 -442 -407 -391 -419 -470 -496 -510 -769 -488 -451 -427 -443 -448 -624 -515 -175 -132 -367 -363 -357 -357 -344 -304 -285 -287 -282 -273 -341 -185 -248 -528 -583 -460 -850 -678 -714 -754 -1058 -1084 -1151 -917 -1142 -1096 -1067 -1148 -1005 -1288 -1291 -1300 -1012 -965 -958 -953 -941 -935 -954 -1022 -1329 -1304 -1288 -1021 -1286 -1294 -1012 -1287 -1307 -1288 -1020 -1015 -1000 -972 -990 -1006 -1023 -1016 -984 -979 -986 -983 -981 -949 -930 -915 -905 -926 -945 -950 -952 -957 -947 -924 -903 -1152 -1148 -1131 -1132 -1137 -1148 -1149 -911 -916 -898 -1132 -1112 -1121 -1112 -1093 -1057 -759 -682 -812 -430 -544 -363 -111 155 623 840 735 1149 1156 1520 1969 2483 3052 3855 4074 4664 4959 5089 5530 5834 6180 5818 5572 5429 4926 4440 3773 3683 3363 2715 2358 1262 467 -39 -249 -766 -1645 -2175 -2566 -2846 -2812 -3421 -3555 -3812 -4173 -4103 -3942 -3696 -3413 -3142 -2888 -2664 -2196 -2010 -2143 -2062 -1687 -1814 -1416 -1555 -1196 -1320 -1138 -694 -824 -774 -484 -506 -807 -800 -506 -506 -827 -655 -712 -762 -1065 -1086 -1079 -1081 -1077 -762 -676 -867 -807 -497 -451 -429 -423 -440 -432 -414 -437 -459 -488 -469 -464 -431 -385 -628 -624 -617 -578 -548 -256 -211 -155 -129 -366 -349 -316 -303 -356 -147 -131 -362 -360 -344 -342 -365 -378 -380 -370 -350 -348 -319 12 31 9 27 109 -75 -79 -100 -107 -93 -96 -19 338 130 129 373 133 373 375 378 378 371 137 195 236 526 247 241 241 228 234 249 538 573 583 591 601 633 387 401 410 413 432 465 511 790 810 850 659 695 719 753 1040 1045 1069 1069 1074 1109 914 964 1006 968 964 1289 1344 1172 1232 1547 1584 1555 1268 1561 1611 1643 1418 1473 1534 1846 1906 1721 1753 1762 1743 1753 2054 2083 2113 2171 1932 1921 1944 1980 1977 1941 1952 2033 2383 2187 2204 2213 2236 2240 2274 2581 2599 2612 2643 2436 2464 2432 2624 2658 2483 2823 2874 2889 2881 2855 2546 2536 2816 2844 2857 2824 2543 2538 2539 2554 2554 2518 2464 2436 2657 2602 2267 2209 2404 2342 2012 1926 2118 1769 1673 1857 1804 1531 1474 1420 1619 1257 1383 1289 934 1093 714 858 775 433 599 533 196 358 265 -79 81 -266 -369 -201 -516 -587 -628 -399 -436 -773 -860 -676 -716 -1034 -1100 -906 -944 -991 -1018 -1020 -1293 -1313 -1375 -1404 -1179 -1206 -1246 -1253 -1545 -1607 -1647 -1651 -1641 -1654 -1433 -1495 -1529 -1528 -1504 -1461 -1414 -1652 -1435 -1459 -1500 -1811 -1852 -1856 -1860 -1860 -1856 -1845 -1817 -1810 -1813 -1811 -1833 -1877 -1907 -1900 -1855 -1803 -1514 -1481 -1452 -1445 -1449 -1424 -1409 -1658 -1423 -1418 -1639 -1639 -1409 -1659 -1653 -1655 -1663 -1414 -1664 -1626 -1636 -1646 -1410 -1663 -1409 -1412 -1652 -1644 -1649 -1644 -1610 -1596 -1582 -1552 -1258 -1262 -1272 -1271 -1254 -1220 -1230 -1228 -1220 -1218 -1221 -1222 -1222 -1226 -1209 -1209 -1205 -1199 -1208 -1196 -1192 -1188 -1163 -1407 -1394 -1384 -1384 -1375 -1368 -1367 -1371 -1369 -1401 -1155 -1174 -1172 -1170 -1404 -1393 -1190 -1220 -1206 -1407 -1342 -1295 -1016 -1017 -999 -981 -965 -945 -937 -1150 -907 -954 -974 -914 -913 -938 -926 -928 -975 -1015 -1024 -1024 -1281 -1019 -980 -947 -931 -915 -1142 -1132 -1136 -902 -1152 -1130 -1134 -1151 -1134 -900 -947 -952 -944 -908 -1129 -1134 -1123 -1090 -1063 -1031 -727 -682 -663 -895 -846 -511 -458 -454 -445 -440 -454 -474 -450 -619 -577 -562 -547 -538 -562 -581 -574 -518 -204 -169 -140 -384 -142 -149 -137 -379 -383 -383 -360 -335 -351 -384 -167 -203 -243 -255 -234 -206 -175 -149 -369 -370 -370 -328 -266 69 113 112 127 -77 -39 -31 -23 -14 -19 -46 -74 110 33 -301 -351 -143 -226 -618 -491 -844 -891 -663 -696 -738 -1044 -1087 -1077 -1053 -1069 -1067 -1038 -1037 -1056 -1090 -1108 -1108 -1116 -1101 -1071 -1053 -1048 -1051 -1060 -1044 -762 -752 -749 -752 -762 -1072 -1077 -1064 -1069 -1084 -1060 -751 -725 -719 -693 -688 -713 -726 -722 -692 -663 -682 -721 -745 -754 -747 -714 -694 -718 -741 -757 -747 -1056 -1089 -1039 -695 -663 -690 -714 -675 -887 -647 -651 -655 -661 -663 -656 -650 -652 -871 -821 -481 -627 -250 -340 127 339 552 779 753 941 1341 1606 1720 2423 2700 3596 4217 4721 4798 5065 5679 5814 6122 6313 6294 6094 6005 5323 4843 4318 4147 3506 3360 2546 1757 994 424 -96 -431 -1375 -2057 -2580 -2709 -2984 -3297 -3893 -3840 -4168 -4138 -3740 -3529 -3235 -3199 -2944 -2461 -2242 -2305 -2143 -1751 -1874 -1483 -1631 -1251 -1334 -1146 -718 -816 -444 -596 -524 -245 -234 -524 -567 -610 -632 -422 -464 -489 -491 -488 -496 -495 -448 -402 -633 -586 -532 -236 -198 -217 -230 -251 -524 -249 -240 -254 -255 -520 -527 -551 -532 -252 -236 -237 -255 -192 -134 -354 -340 -324 -285 -263 -293 -313 -286 -288 -335 -361 -335 -314 -319 -307 -271 39 66 93 -119 -87 -53 -26 279 323 329 329 357 377 135 380 134 375 341 325 358 138 370 139 169 186 206 223 253 246 241 231 514 254 231 242 537 555 562 595 393 426 444 487 776 803 828 826 872 893 650 670 714 754 1027 1040 1051 1082 1102 1115 1151 931 965 1005 1309 1358 1386 1406 1174 1201 1240 1558 1608 1605 1628 1637 1448 1518 1826 1857 1891 1907 1898 1913 1689 1740 1772 2064 2081 2147 1923 1979 2036 2342 2331 2321 2369 2429 2221 2265 2583 2570 2262 2277 2602 2658 2460 2444 2493 2532 2541 2554 2839 2831 2822 2558 2820 2896 2924 2745 2787 2766 2764 2785 3080 3131 3141 3130 3159 3189 3169 3149 3139 3122 3075 2782 2800 2804 2745 2914 2817 2512 2658 2591 2569 2297 2245 2407 2316 1954 2088 1759 1715 1908 1821 1460 1639 1617 1272 1210 1156 1324 971 1146 1065 736 873 804 464 419 598 523 178 353 285 -70 45 -324 -172 -246 -545 -605 -429 -493 -781 -828 -656 -705 -704 -751 -1087 -1118 -1061 -1106 -955 -1019 -1311 -1324 -1365 -1181 -1235 -1561 -1603 -1576 -1542 -1275 -1561 -1628 -1648 -1644 -1428 -1429 -1430 -1432 -1455 -1663 -1605 -1552 -1544 -1574 -1587 -1605 -1586 -1586 -1570 -1575 -1542 -1247 -1258 -1267 -1274 -1258 -1252 -1262 -1559 -1568 -1540 -1262 -1250 -1244 -1203 -1177 -1157 -1407 -1174 -1174 -1186 -1159 -1163 -1383 -1155 -1217 -1256 -1615 -1413 -1623 -1278 -1269 -1550 -1565 -1561 -1269 -1278 -1538 -1540 -1278 -1542 -1249 -1169 -1157 -1163 -1187 -1392 -1319 -1020 -1289 -1313 -1298 -983 -974 -948 -949 -984 -1017 -1008 -980 -952 -915 -1134 -1142 -919 -986 -1284 -1327 -1326 -1335 -1293 -973 -977 -991 -1013 -1020 -1282 -1283 -1021 -1316 -1312 -1286 -958 -1106 -1114 -914 -1145 -1123 -1146 -1150 -1116 -1131 -905 -905 -1132 -1092 -1072 -1100 -1063 -1043 -1039 -1060 -1051 -1035 -1064 -1054 -745 -736 -730 -702 -677 -718 -1049 -1074 -1092 -1095 -1110 -1088 -1048 -1069 -1098 -1084 -1054 -1045 -1031 -1034 -766 -1062 -1093 -1102 -1027 -721 -750 -1036 -1048 -1037 -745 -662 -840 -812 -798 -786 -474 -423 -388 -619 -586 -598 -610 -386 -620 -595 -562 -540 -252 -217 -194 -190 -164 -379 -355 -348 -331 -268 8 -282 -320 -371 -142 -379 -340 -321 -302 -288 -304 -319 -323 -291 6 42 62 59 82 -127 -91 -24 305 332 323 349 367 328 272 273 258 -54 -70 -50 -121 -257 -341 -356 -187 -594 -474 -771 -784 -810 -659 -748 -761 -1026 -1029 -1025 -1055 -1078 -1088 -1035 -718 -670 -687 -752 -751 -763 -761 -724 -705 -697 -732 -759 -726 -895 -856 -886 -664 -731 -1053 -1061 -768 -1027 -1072 -1141 -1134 -1060 -731 -659 -858 -822 -838 -887 -658 -690 -735 -755 -735 -724 -733 -745 -745 -756 -1028 -735 -693 -669 -718 -767 -1049 -1107 -1148 -1102 -765 -708 -692 -661 -855 -883 -685 -679 -672 -872 -793 -444 -569 -158 13 -34 190 614 475 640 1046 934 1184 1839 2039 2557 3204 4150 4728 4843 5101 5698 5846 6453 6390 6351 6416 5836 5362 4827 4609 3996 3946 3289 2932 2104 1296 429 95 -793 -1247 -2108 -2565 -2834 -3109 -3241 -3846 -4100 -3986 -3971 -3797 -3496 -3452 -2965 -2707 -2439 -2210 -2022 -2112 -1687 -1522 -1428 -1608 -1260 -1371 -906 -736 -828 -450 -629 -571 -539 -544 -596 -436 -794 -868 -673 -725 -1035 -1083 -1062 -754 -698 -868 -491 -453 -455 -441 -424 -625 -525 -213 -231 -237 -234 -226 -216 -237 -232 -232 -218 -216 -245 -223 -168 -358 -325 -329 -346 -380 -154 -380 -321 -297 -340 -373 -350 -294 0 -265 -281 2 43 44 7 -289 -333 -319 48 -101 -51 -49 -72 -92 -113 -118 -103 -65 259 259 281 311 330 328 129 137 361 377 176 238 250 516 548 582 585 575 574 565 534 247 555 414 439 399 625 420 482 499 769 814 841 852 880 830 774 782 846 702 1044 1076 1083 1089 1079 1066 1120 925 981 1021 1286 1302 1299 1304 1387 1216 1257 1241 1259 1565 1413 1485 1498 1491 1482 1478 1522 1849 1918 1740 1769 1775 1789 1783 2048 2098 2095 2093 2107 2100 2124 2160 1972 2309 2346 2328 2310 2339 2380 2384 2374 2374 2176 2249 2301 2299 2266 2272 2588 2628 2668 2663 2670 2453 2506 2539 2817 2544 2548 2541 2499 2515 2490 2682 2643 2669 2499 2502 2453 2469 2512 2525 2555 2518 2664 2573 2567 2292 2216 2374 2031 1940 2109 1757 1692 1668 1885 1792 1415 1270 1200 1342 955 1094 767 742 761 752 667 842 501 447 608 248 178 130 279 -88 86 15 -312 -143 -201 -528 -596 -413 -792 -883 -893 -664 -733 -1069 -1147 -937 -964 -970 -1020 -1300 -1294 -1012 -996 -1311 -1403 -1241 -1571 -1560 -1559 -1589 -1420 -1521 -1802 -1794 -1796 -1826 -1824 -1817 -1834 -1848 -1835 -1809 -1799 -1531 -1512 -1524 -1513 -1497 -1456 -1430 -1451 -1443 -1597 -1246 -1270 -1579 -1583 -1584 -1657 -1493 -1801 -1503 -1411 -1625 -1597 -1589 -1578 -1579 -1556 -1276 -1556 -1616 -1619 -1583 -1570 -1562 -1551 -1280 -1273 -1567 -1560 -1261 -1245 -1548 -1581 -1597 -1597 -1608 -1556 -1274 -1596 -1644 -1579 -1250 -1242 -1257 -1206 -1384 -1378 -1172 -1199 -1169 -1386 -1377 -1359 -1338 -1363 -1397 -1366 -1323 -1334 -1395 -1228 -1268 -1255 -1236 -1180 -1170 -1180 -1168 -1339 -1011 -975 -1002 -1300 -1323 -1300 -991 -947 -948 -980 -979 -915 -899 -927 -965 -908 -1079 -1077 -1099 -1076 -1068 -1088 -1121 -1112 -1105 -1113 -1133 -1134 -1077 -1047 -1078 -901 -922 -963 -1007 -1304 -1292 -995 -948 -979 -988 -994 -976 -991 -1008 -1002 -955 -1146 -1097 -1126 -902 -908 -1119 -1150 -925 -945 -933 -1138 -1077 -1070 -1066 -1076 -1104 -1128 -1097 -1044 -746 -710 -644 -856 -795 -508 -486 -490 -800 -823 -793 -781 -502 -425 -621 -628 -405 -453 -442 -493 -464 -395 -586 -523 -252 -254 -255 -541 -576 -586 -559 -544 -234 -238 -516 -529 -514 -176 -346 -382 -179 -204 -145 -378 -135 -146 -146 -365 1 9 26 86 -57 281 -22 110 12 -296 -327 -350 -356 -347 -163 -542 -414 -770 -843 -886 -683 -737 -1056 -1105 -899 -907 -1102 -725 -678 -675 -710 -757 -1053 -761 -700 -667 -709 -745 -725 -1025 -1079 -1071 -1028 -1061 -1086 -1101 -901 -922 -902 -1110 -1085 -1052 -1075 -1109 -1084 -1044 -744 -700 -669 -715 -765 -761 -756 -767 -754 -1045 -1088 -1115 -906 -1104 -767 -717 -738 -1031 -1076 -1128 -921 -922 -1125 -1088 -765 -735 -693 -660 -676 -708 -687 -678 -694 -701 -746 -748 -716 -860 -410 -243 -330 118 328 530 470 666 1044 932 1155 1476 1933 2461 3328 3932 4419 4526 4825 5426 5535 5825 6239 6197 6015 5663 5212 4708 4000 3872 3594 2979 2579 1449 662 171 -282 -804 -1374 -1848 -1941 -2220 -2516 -2961 -3692 -3786 -4169 -4097 -3916 -3701 -3441 -3161 -2863 -2609 -2411 -1973 -2106 -1750 -1683 -1858 -1499 -1625 -1241 -1391 -1301 -925 -741 -786 -438 -415 -423 -410 -460 -805 -855 -830 -825 -653 -1049 -1090 -1080 -1058 -1068 -1043 -726 -696 -891 -838 -505 -458 -395 -431 -477 -770 -835 -843 -845 -860 -818 -467 -394 -412 -428 -405 -632 -595 -529 -212 -381 -345 -329 -164 -176 -129 -378 -378 -163 -240 -514 -232 -235 -214 -223 -189 -147 -139 -384 -361 -332 -327 -296 5 21 54 51 58 71 30 50 109 -107 -51 -22 273 284 305 325 348 129 357 266 265 328 142 182 200 230 538 572 611 599 567 525 536 571 593 582 615 624 626 410 449 491 479 479 786 834 846 865 660 689 677 665 680 653 868 661 1052 1142 900 901 970 1316 1364 1368 1337 1314 1294 1292 1374 1235 1581 1614 1651 1418 1414 1426 1464 1524 1825 1847 1880 1684 1700 1681 1732 1766 1767 2068 2145 1932 1951 1974 2001 2324 2314 2045 2329 2331 2377 2405 2199 2244 2254 2258 2610 2653 2569 2242 2222 2265 2563 2584 2300 2275 2236 2235 2285 2581 2619 2644 2635 2617 2631 2635 2633 2626 2625 2621 2641 2638 2582 2237 2196 2413 2357 2029 1940 2116 1776 1701 1858 1493 1615 1230 1211 1179 1337 982 951 909 1061 696 878 840 802 771 474 393 553 170 294 -56 -110 96 51 -284 -158 -514 -550 -625 -442 -506 -835 -896 -711 -1052 -1100 -898 -974 -997 -1024 -1295 -1300 -1282 -1021 -1295 -1360 -1399 -1402 -1156 -1162 -1185 -1268 -1586 -1597 -1580 -1545 -1248 -1538 -1595 -1626 -1604 -1600 -1580 -1566 -1590 -1637 -1648 -1610 -1558 -1567 -1631 -1428 -1450 -1445 -1424 -1642 -1609 -1624 -1663 -1440 -1420 -1648 -1635 -1589 -1550 -1573 -1581 -1577 -1582 -1585 -1573 -1542 -1260 -1252 -1248 -1249 -1260 -1254 -1249 -1551 -1638 -1466 -1480 -1623 -1235 -1177 -1200 -1232 -1267 -1555 -1557 -1276 -1247 -1537 -1567 -1554 -1245 -1225 -1200 -1188 -1210 -1247 -1256 -1234 -1196 -1164 -1404 -1393 -1385 -1168 -1181 -1403 -1364 -1371 -1401 -1395 -1327 -1311 -1317 -1316 -1023 -1006 -985 -962 -989 -1018 -1011 -1012 -1023 -1332 -1343 -1012 -944 -929 -961 -946 -915 -917 -917 -1135 -1103 -1150 -935 -906 -1148 -1152 -905 -1148 -1152 -922 -973 -1000 -999 -969 -949 -954 -967 -989 -979 -962 -960 -955 -916 -1139 -1141 -1144 -1110 -1085 -1075 -1088 -1116 -1151 -933 -985 -1022 -963 -928 -920 -1141 -1093 -1042 -1058 -1079 -1064 -1026 -719 -683 -654 -895 -892 -877 -852 -784 -496 -499 -459 -417 -617 -562 -555 -563 -573 -577 -522 -245 -515 -233 -199 -193 -189 -177 -172 -225 -550 -620 -396 -405 -401 -408 -447 -485 -466 -437 -409 -638 -634 -615 -599 -581 -517 -182 -356 -280 10 38 88 107 98 79 92 -127 74 57 86 24 -340 -190 -535 -607 -407 -429 -425 -474 -804 -885 -674 -679 -677 -675 -663 -701 -750 -1043 -1054 -1078 -1095 -1096 -1080 -1110 -1147 -1114 -1075 -1120 -909 -1152 -1111 -1112 -918 -952 -957 -928 -925 -939 -930 -1151 -1101 -1040 -746 -716 -717 -1029 -1090 -1105 -1117 -1075 -1027 -741 -754 -1025 -756 -709 -741 -727 -896 -826 -876 -685 -709 -708 -702 -716 -690 -644 -671 -705 -1028 -1063 -1081 -765 -698 -665 -653 -862 -483 -618 -543 -205 -307 114 318 516 445 881 1048 988 1273 1877 1995 2496 3052 3888 4358 4703 4785 5396 5514 5826 6232 6161 5914 5259 4819 4624 3976 3936 3656 2980 2254 1632 876 137 -318 -795 -1300 -1531 -1926 -2213 -2679 -2798 -3262 -3853 -3736 -3951 -3549 -3249 -3156 -2871 -2624 -2419 -2019 -1926 -2142 -2078 -1711 -1856 -1512 -1640 -1213 -1297 -1123 -677 -467 -562 -230 -196 -183 -220 -528 -591 -400 -477 -800 -807 -805 -827 -870 -884 -859 -859 -842 -793 -464 -398 -616 -583 -556 -527 -539 -569 -598 -560 -571 -572 -543 -539 -565 -528 -197 -180 -238 -532 -232 -183 -187 -158 -338 -318 -339 -356 -374 -368 -366 -345 -323 -314 -305 -260 71 91 82 105 -91 -57 -88 123 82 82 97 -127 -112 -110 -89 -79 -55 -82 -98 -96 -80 -58 -66 -54 -24 -3 279 329 157 220 250 245 225 241 527 548 555 568 564 544 559 568 567 606 411 459 458 459 472 471 468 487 795 874 672 706 732 1028 1080 1144 919 966 953 947 959 959 976 988 1285 1304 1287 1289 1285 1022 1019 1373 1236 1576 1634 1447 1494 1496 1478 1504 1828 1860 1845 1898 1779 2108 2113 2128 2171 1961 1992 2021 2047 2024 1978 1997 2331 2396 2183 2215 2201 2424 2391 2404 2420 2426 2426 2218 2259 2576 2621 2659 2681 2678 2684 2676 2443 2463 2461 2463 2476 2480 2466 2494 2549 2841 2849 2867 2881 2838 2507 2444 2662 2606 2281 2235 2200 2387 2044 1984 2173 2129 2066 1743 1665 1813 1448 1624 1570 1246 1173 1359 1313 996 1150 1081 1050 720 863 475 629 547 194 350 258 -88 81 11 -308 -373 -213 -560 -394 -480 -806 -848 -865 -646 -687 -731 -758 -1076 -1119 -908 -943 -966 -1007 -1303 -1365 -1187 -1221 -1202 -1211 -1543 -1634 -1451 -1482 -1497 -1508 -1510 -1487 -1513 -1807 -1844 -1886 -1670 -1703 -1714 -1907 -1861 -1849 -1845 -1814 -1804 -1850 -1848 -1800 -1517 -1834 -1894 -1867 -1843 -1814 -1798 -1824 -1847 -1855 -1821 -1519 -1495 -1500 -1513 -1507 -1515 -1793 -1511 -1497 -1520 -1826 -1831 -1526 -1504 -1495 -1487 -1477 -1469 -1475 -1506 -1517 -1497 -1459 -1421 -1432 -1453 -1480 -1445 -1626 -1606 -1652 -1422 -1658 -1425 -1447 -1427 -1656 -1650 -1654 -1654 -1415 -1654 -1633 -1600 -1539 -1221 -1167 -1402 -1408 -1167 -1163 -1186 -1187 -1195 -1203 -1175 -1390 -1401 -1154 -1180 -1186 -1210 -1231 -1225 -1231 -1221 -1179 -1153 -1403 -1184 -1213 -1208 -1404 -1349 -1287 -1012 -1288 -1316 -1332 -1321 -1303 -1295 -1295 -1331 -1378 -1372 -1328 -1283 -1000 -1002 -1290 -1326 -1352 -1373 -1379 -1362 -1327 -1299 -1021 -983 -951 -924 -907 -1121 -1116 -1138 -1152 -1140 -1145 -1152 -932 -988 -966 -924 -914 -1144 -1126 -1112 -1094 -1070 -1054 -1050 -1041 -705 -642 -858 -835 -809 -792 -794 -803 -803 -512 -475 -422 -391 -393 -438 -460 -411 -588 -532 -527 -250 -202 -197 -184 -179 -164 -184 -208 -219 -182 -176 -203 -194 -179 -217 -528 -538 -513 -233 -169 -381 -356 -327 -323 -259 80 121 -96 -51 278 314 286 -19 -34 -50 -51 -76 105 14 -287 -300 -354 -226 -390 -783 -878 -683 -740 -760 -1035 -1053 -1074 -1072 -1078 -1066 -1036 -745 -716 -702 -713 -738 -734 -714 -700 -668 -658 -706 -1030 -1068 -1064 -1081 -1107 -1119 -1129 -1144 -907 -902 -1127 -1121 -1124 -1148 -908 -902 -1115 -1059 -1027 -1050 -1087 -1103 -1098 -1100 -1090 -1052 -1038 -1072 -1115 -1111 -1071 -1057 -1068 -1047 -1034 -1084 -907 -924 -1152 -1111 -1047 -740 -736 -760 -1038 -1046 -1037 -767 -755 -732 -664 -824 -493 -403 -545 -148 29 272 564 799 728 919 1338 1569 1881 2027 2523 3348 3921 4430 4553 4837 5404 5554 6180 6130 6099 6163 5557 5113 4594 4089 3947 3595 2944 2653 1864 1067 205 -304 -840 -1207 -2106 -2568 -2855 -2810 -3357 -3474 -3745 -4123 -4112 -3716 -3700 -3413 -3142 -2842 -2589 -2425 -2032 -2133 -1719 -1838 -1467 -1605 -1213 -1349 -943 -759 -839 -457 -391 -581 -556 -610 -406 -452 -504 -818 -859 -651 -697 -742 -762 -731 -657 -866 -825 -771 -473 -447 -409 -405 -629 -612 -600 -581 -543 -547 -541 -577 -599 -613 -617 -606 -600 -564 -245 -159 -370 -356 -373 -317 -273 -282 -297 -298 -289 -275 -260 10 23 42 42 54 54 73 68 64 52 14 12 53 104 -108 -88 -41 -3 -9 -20 -9 283 325 318 288 -1 -17 271 332 360 367 148 158 163 156 171 193 235 243 245 521 554 584 612 634 406 430 449 468 500 508 485 471 473 474 500 779 800 789 815 873 705 755 1060 1125 938 1289 1014 957 984 995 1003 1280 1333 1361 1365 1379 1392 1388 1406 1185 1225 1266 1255 1564 1631 1443 1469 1522 1828 1885 1913 1704 1750 2058 2112 2148 2162 2157 2163 1976 2307 2359 2318 2035 2043 2347 2400 2227 2261 2280 2295 2577 2605 2631 2648 2685 2483 2502 2524 2818 2882 2928 2916 2900 2909 2920 2930 2694 2708 2700 2930 2937 2721 2737 2721 2934 2874 2555 2538 2533 2534 2532 2503 2488 2447 2628 2303 2282 2237 2425 2349 2308 2018 1970 2137 1776 1675 1845 1492 1436 1640 1583 1237 1391 1312 958 1121 1031 683 822 443 586 249 187 376 290 -70 99 55 -276 -374 -213 -617 -459 -437 -451 -510 -825 -895 -701 -1031 -1061 -1067 -1091 -1133 -953 -1294 -1346 -1368 -1372 -1368 -1391 -1198 -1224 -1232 -1227 -1238 -1247 -1279 -1578 -1631 -1418 -1409 -1654 -1410 -1415 -1663 -1426 -1416 -1410 -1646 -1645 -1646 -1648 -1622 -1655 -1429 -1648 -1622 -1591 -1606 -1614 -1601 -1622 -1629 -1637 -1630 -1655 -1651 -1619 -1600 -1613 -1593 -1587 -1558 -1543 -1547 -1567 -1576 -1616 -1619 -1608 -1596 -1598 -1623 -1610 -1583 -1278 -1247 -1182 -1402 -1160 -1199 -1218 -1213 -1242 -1241 -1173 -1385 -1345 -1351 -1318 -1348 -1354 -1359 -1341 -1353 -1384 -1159 -1162 -1157 -1392 -1357 -1316 -1295 -1293 -1304 -1288 -1304 -1320 -1327 -1351 -1336 -1345 -1352 -1348 -1321 -1336 -1345 -1333 -1308 -986 -932 -911 -928 -908 -1140 -1139 -1132 -1149 -1147 -898 -1128 -1126 -1147 -1146 -1111 -1109 -1119 -1135 -1140 -918 -956 -948 -932 -907 -913 -910 -1148 -901 -1137 -1139 -1125 -1110 -1108 -1078 -1078 -1084 -1055 -1043 -1065 -1069 -1080 -1077 -1087 -1081 -1028 -713 -706 -760 -1079 -1112 -1092 -1062 -1062 -1039 -745 -735 -706 -704 -663 -870 -832 -790 -769 -505 -481 -408 -607 -574 -590 -588 -577 -573 -541 -523 -516 -546 -537 -525 -244 -239 -520 -238 -196 -238 -248 -237 -215 -199 -216 -210 -167 -180 -180 -146 -371 -367 -360 -292 -257 3 25 78 83 85 106 -77 -24 -17 -47 -51 260 305 326 371 129 349 342 348 378 354 -24 -98 55 -333 -189 -561 -403 -775 -863 -885 -641 -697 -759 -1081 -1138 -935 -954 -925 -920 -1142 -1111 -1109 -1079 -1066 -1029 -721 -678 -685 -685 -675 -694 -694 -686 -656 -665 -721 -765 -742 -738 -717 -736 -700 -681 -890 -889 -890 -648 -695 -732 -759 -762 -1043 -1036 -1034 -1040 -1063 -1058 -768 -720 -728 -1040 -1043 -1062 -1057 -1047 -767 -724 -696 -682 -676 -656 -669 -683 -690 -700 -721 -683 -644 -876 -885 -873 -799 -429 -592 -521 -144 -271 -91 372 582 796 744 922 1203 1800 1937 2444 3062 3721 4288 4945 5237 5298 5940 6096 6684 6767 6367 6064 5911 5393 4531 4004 3861 3202 2923 2156 1375 776 -32 -622 -1332 -2067 -2660 -3091 -3378 -3679 -3742 -4210 -4027 -3982 -4126 -3900 -3613 -3071 -2793 -2551 -2611 -2415 -1970 -1777 -1848 -1483 -1425 -1562 -1355 -1127 -670 -771 -398 -541 -235 -238 -529 -580 -426 -794 -849 -872 -883 -663 -676 -670 -681 -700 -658 -865 -815 -770 -459 -403 -618 -557 -529 -565 -610 -595 -558 -521 -227 -219 -224 -529 -564 -576 -544 -250 -227 -201 -133 -376 -141 -377 -330 -335 -371 -377 -333 -327 -331 -322 -310 -306 -292 -274 3 -259 -273 -278 17 50 58 107 -99 -105 -119 -91 -46 -21 -44 -58 -60 -87 -123 -66 309 167 200 140 366 361 345 354 137 371 360 382 200 541 585 614 403 426 401 388 411 424 450 490 802 844 865 880 660 663 884 875 658 694 755 1085 1142 940 933 935 953 967 920 1107 1108 948 1309 1362 1378 1385 1368 1356 1345 1377 1213 1556 1648 1456 1471 1493 1807 1845 1903 1680 1721 1786 2090 2120 2158 1943 1982 2004 2034 2313 2332 2333 2347 2387 2396 2342 2314 2307 2354 2405 2198 2252 2283 2572 2642 2687 2436 2447 2477 2545 2820 2864 2688 2723 2738 2740 2774 2769 2737 2697 2704 2730 2757 2763 2739 2924 2867 2841 2832 2837 2836 2819 2848 2849 2558 2494 2660 2593 2267 2196 2400 2354 2326 2040 2010 1990 2160 2049 1691 1875 1516 1415 1607 1556 1254 1211 1392 997 1147 1075 747 664 806 401 565 211 334 257 -74 116 31 -336 -185 -561 -410 -456 -454 -499 -855 -708 -762 -1070 -1140 -980 -1292 -1336 -1392 -1386 -1402 -1172 -1206 -1200 -1160 -1157 -1190 -1217 -1221 -1234 -1276 -1572 -1280 -1229 -1258 -1577 -1618 -1653 -1450 -1462 -1430 -1434 -1449 -1458 -1439 -1414 -1663 -1442 -1503 -1807 -1862 -1909 -1886 -1832 -1524 -1466 -1410 -1630 -1429 -1465 -1438 -1438 -1488 -1799 -1519 -1486 -1453 -1422 -1423 -1417 -1651 -1641 -1595 -1597 -1650 -1457 -1456 -1659 -1603 -1565 -1558 -1593 -1621 -1621 -1597 -1588 -1612 -1633 -1619 -1617 -1642 -1635 -1598 -1548 -1545 -1542 -1235 -1178 -1180 -1402 -1357 -1351 -1311 -1347 -1379 -1159 -1392 -1348 -1349 -1154 -1204 -1220 -1207 -1194 -1185 -1205 -1205 -1163 -1171 -1176 -1403 -1385 -1391 -1403 -1385 -1349 -1337 -1296 -977 -952 -978 -991 -989 -978 -964 -936 -941 -988 -1307 -1293 -1014 -982 -1152 -1105 -1118 -1122 -1128 -902 -1135 -1107 -1125 -1129 -1087 -1090 -1118 -1101 -1067 -1094 -1149 -900 -1146 -1146 -900 -916 -954 -963 -934 -1116 -1076 -1112 -921 -972 -1020 -1322 -1022 -908 -1074 -1070 -1077 -753 -696 -674 -699 -667 -848 -808 -782 -769 -469 -428 -433 -465 -457 -443 -395 -552 -221 -256 -618 -426 -450 -401 -567 -211 -163 -193 -214 -183 -191 -172 -160 -204 -228 -205 -201 -214 -213 -208 -200 -182 -165 -373 -331 -312 -365 -140 -381 -299 13 89 -93 -65 -51 -102 -113 -100 -79 -80 -85 -61 -67 -108 106 63 39 -286 -371 -183 -253 -587 -453 -869 -678 -669 -746 -1088 -1125 -1148 -1131 -1082 -1047 -1043 -1062 -1069 -1052 -756 -1061 -1128 -1146 -1152 -1132 -1124 -1060 -1029 -747 -747 -1031 -1075 -1129 -921 -959 -928 -1140 -1134 -1138 -1130 -1126 -1142 -1132 -1090 -1063 -1041 -762 -1027 -1047 -725 -641 -664 -700 -710 -745 -749 -1031 -1078 -1087 -1069 -1054 -738 -662 -656 -745 -1043 -739 -748 -1065 -1059 -728 -716 -753 -1031 -745 -694 -684 -708 -661 -819 -772 -434 -545 -365 44 -58 326 140 542 771 1034 1009 1220 1814 1999 2495 3049 3948 4303 4985 5021 5365 5990 6038 6466 6435 6247 5942 5284 4827 4655 3990 3852 3418 2483 1870 1070 204 -334 -860 -1227 -2057 -2205 -2471 -2707 -3382 -3535 -3837 -3999 -4206 -3741 -3471 -3224 -2986 -2760 -2552 -2681 -2232 -2003 -1791 -1689 -1872 -1829 -1423 -1256 -1345 -926 -1039 -665 -783 -396 -528 -224 -238 -537 -613 -415 -463 -784 -791 -813 -829 -804 -787 -786 -776 -441 -386 -590 -518 -153 -381 -154 -215 -243 -216 -130 -312 -306 -359 -170 -142 -366 -131 -182 -522 -550 -557 -544 -230 -169 -384 -369 -357 -380 -361 -371 -370 -322 -272 -264 -308 -330 -304 -263 40 -125 -52 -49 -33 -17 286 347 328 309 314 324 323 309 304 270 -64 122 102 -111 -59 264 324 373 356 351 292 -7 284 326 374 167 212 240 530 598 409 440 456 472 505 796 781 490 484 795 811 797 828 647 705 688 672 669 697 756 1062 1120 1145 899 1129 1115 1137 922 955 952 957 992 1292 1345 1393 1158 1181 1196 1226 1246 1278 1552 1577 1613 1653 1463 1481 1812 1894 1683 1702 1722 1775 2076 2171 1968 2021 2033 1996 1978 1974 2002 2026 2334 2387 2395 2393 2396 2183 2282 2622 2621 2677 2437 2648 2563 2564 2617 2670 2686 2676 2434 2461 2464 2518 2823 2542 2439 2615 2631 2611 2561 2300 2597 2593 2640 2475 2485 2662 2656 2661 2678 2681 2628 2568 2560 2235 2378 2020 1978 2169 1772 1696 1918 1883 1805 1452 1638 1544 1177 1332 976 1141 1043 742 740 705 855 463 576 163 345 315 279 -29 109 6 -316 -380 -215 -569 -594 -624 -439 -772 -879 -696 -1042 -1125 -1121 -900 -958 -948 -915 -1151 -954 -1315 -1381 -1395 -1357 -1369 -1223 -1606 -1623 -1565 -1540 -1538 -1597 -1618 -1569 -1577 -1276 -1571 -1609 -1434 -1439 -1453 -1621 -1555 -1575 -1618 -1617 -1626 -1452 -1469 -1438 -1661 -1656 -1411 -1649 -1636 -1615 -1584 -1537 -1549 -1600 -1634 -1648 -1623 -1594 -1630 -1651 -1414 -1422 -1649 -1639 -1656 -1635 -1601 -1584 -1596 -1647 -1438 -1472 -1495 -1473 -1438 -1620 -1546 -1563 -1619 -1592 -1552 -1273 -1258 -1242 -1554 -1599 -1569 -1264 -1251 -1236 -1227 -1349 -1020 -1341 -1376 -1380 -1360 -1356 -1350 -1321 -1294 -1016 -1322 -1319 -1340 -1352 -1352 -1351 -1322 -1336 -1394 -1156 -1397 -1398 -1373 -1356 -1022 -1309 -1378 -1336 -1009 -994 -977 -948 -938 -943 -977 -1023 -1338 -1341 -1319 -992 -923 -907 -968 -1005 -977 -950 -1142 -1082 -1080 -1065 -1069 -1103 -1147 -935 -927 -1125 -1096 -765 -762 -1081 -1098 -1087 -1058 -1073 -898 -910 -1133 -1134 -915 -955 -960 -939 -936 -1130 -1057 -1029 -1043 -1034 -732 -717 -673 -894 -830 -510 -499 -492 -447 -399 -401 -503 -795 -498 -474 -440 -405 -425 -450 -414 -395 -616 -575 -551 -232 -165 -204 -541 -241 -221 -513 -544 -522 -242 -242 -240 -230 -240 -530 -544 -516 -225 -230 -235 -212 -237 -241 -193 -362 -276 11 36 61 89 89 86 87 105 81 25 -327 -159 -194 -217 -167 -206 -620 -787 -885 -652 -650 -751 -1060 -1034 -1050 -1128 -1141 -1130 -1115 -1084 -736 -672 -725 -1073 -1075 -1028 -1032 -1044 -1040 -734 -708 -702 -658 -653 -720 -1037 -1085 -897 -989 -1005 -974 -1135 -1065 -1045 -1029 -1030 -1074 -1108 -1146 -937 -913 -1121 -1061 -717 -717 -1025 -1036 -760 -738 -724 -701 -672 -650 -683 -717 -695 -645 -867 -826 -821 -868 -653 -666 -666 -683 -686 -700 -703 -702 -664 -857 -793 -505 -480 -436 -614 -533 -187 10 -11 195 405 647 1104 980 1172 1481 2096 2202 2860 3410 3785 4289 4870 5180 5283 5627 6156 6233 5871 5594 5387 4867 4379 3783 3499 3437 2928 2130 1333 478 293 -192 -741 -1570 -1768 -2313 -2238 -2447 -3126 -3301 -3843 -3946 -3853 -3619 -3069 -2754 -2480 -2268 -2321 -1931 -2112 -1775 -1733 -1682 -1883 -1520 -1604 -1384 -1006 -1126 -685 -481 -391 -627 -630 -394 -459 -493 -786 -780 -817 -855 -659 -708 -747 -730 -711 -660 -862 -804 -502 -461 -639 -583 -521 -244 -516 -559 -563 -549 -255 -525 -550 -605 -600 -576 -522 -193 -149 -172 -194 -200 -166 -351 -327 -309 -348 -150 -156 -376 -288 32 14 26 23 3 24 54 37 13 28 56 81 63 82 99 70 83 -121 -102 99 57 98 -54 -67 -91 -58 -2 317 354 355 310 298 326 379 172 210 211 250 520 253 223 210 253 541 549 531 534 553 582 638 452 496 492 473 433 462 777 860 663 737 1024 1048 1026 720 700 728 1031 1075 1089 1101 1145 999 1323 1291 1014 1301 1340 1360 1390 1169 1180 1205 1246 1275 1551 1586 1613 1615 1623 1638 1428 1470 1510 1812 1819 1848 1875 1917 1744 2116 1944 1970 2005 2038 2321 2347 2378 2389 2373 2376 2382 2382 2421 2205 2253 2280 2231 2189 2196 2206 2212 2237 2253 2280 2295 2575 2661 2442 2450 2452 2449 2467 2456 2437 2673 2671 2654 2659 2459 2480 2482 2481 