366 138 150 172 171 380 379 363 144 196 208 216 153 378 187 185 153 151 207 515 543 541 540 570 613 421 467 483 485 505 819 833 841 808 786 785 814 869 662 893 848 861 883 640 881 879 866 858 648 719 767 760 763 1029 1055 1040 737 753 1061 1092 1068 1064 915 997 1289 1311 1306 1287 953 917 938 967 1003 1287 1402 1190 1208 1239 1252 1266 1539 1274 1566 1609 1632 1659 1430 1471 1823 1889 1886 1881 1892 1896 1675 1695 1737 2056 2102 2080 1774 2048 2096 2089 2064 2115 2159 1929 1945 1951 1927 2174 2154 1920 1959 2003 2047 2027 1997 1982 1984 2018 2034 2045 2343 2370 2389 2353 2316 2340 2350 2333 2334 2327 2015 1951 1951 1952 2154 2149 2091 1739 1889 1893 1869 1804 1503 1523 1802 1506 1471 1410 1587 1229 1394 1306 1017 992 971 953 1129 1033 702 647 800 471 418 400 601 248 167 380 312 274 -6 -81 97 36 -286 -345 -131 -157 -206 -521 -598 -446 -795 -850 -892 -675 -692 -713 -740 -1038 -1092 -1113 -1101 -1111 -1151 -912 -1152 -1124 -1096 -1110 -934 -972 -966 -984 -1018 -1283 -1294 -1281 -1283 -1304 -1321 -1356 -1374 -1387 -1369 -1375 -1381 -1361 -1301 -1283 -1293 -1022 -1005 -1018 -1306 -1329 -1338 -1318 -1289 -1309 -1344 -1351 -1350 -1305 -1289 -1295 -1327 -1316 -1011 -970 -973 -988 -1017 -1291 -1313 -1294 -1000 -980 -964 -950 -939 -953 -970 -982 -1003 -1019 -1006 -948 -923 -940 -971 -965 -939 -919 -912 -923 -937 -930 -925 -919 -902 -1142 -1134 -1124 -1133 -899 -939 -930 -900 -1135 -1128 -1092 -1089 -1091 -1082 -1087 -1086 -1058 -1043 -1055 -1077 -1107 -1086 -1061 -1064 -1087 -1073 -1055 -1040 -1041 -1041 -1030 -766 -748 -740 -737 -706 -689 -692 -701 -693 -685 -659 -882 -849 -848 -866 -642 -677 -709 -714 -700 -663 -647 -643 -645 -653 -874 -855 -845 -845 -871 -650 -664 -896 -646 -686 -666 -856 -825 -852 -882 -885 -884 -882 -885 -891 -655 -655 -672 -692 -686 -701 -706 -673 -646 -889 -876 -641 -658 -678 -658 -880 -858 -886 -881 -870 -869 -873 -887 -878 -860 -829 -834 -822 -808 -804 -818 -843 -879 -889 -821 -491 -466 -473 -465 -493 -805 -828 -770 -460 -471 -477 -467 -463 -497 -800 -771 -446 -413 -418 -417 -640 -623 -604 -574 -554 -542 -518 -523 -236 -203 -140 -323 35 95 113 126 -92 -42 -29 -13 263 264 -35 -89 -128 103 109 -114 -57 259 284 339 152 219 255 523 522 534 585 404 438 416 573 245 226 242 209 130 327 -13 -80 -109 -104 100 57 2 -337 -333 -355 -135 -162 -169 -180 -149 -153 -216 -249 -571 -589 -561 -584 -388 -417 -459 -479 -512 -488 -456 -448 -460 -419 -422 -415 -419 -402 -633 -606 -570 -576 -555 -580 -624 -407 -428 -468 -495 -512 -782 -775 -770 -509 -773 -511 -487 -457 -452 -453 -420 -640 -631 -393 -405 -411 -422 -411 -637 -618 -611 -626 -401 -386 -391 -416 -423 -404 -433 -486 -500 -482 -452 -428 -390 -402 -455 -769 -775 -478 -439 -434 -437 -457 -463 -459 -448 -455 -445 -418 -427 -412 -413 -632 -573 -531 -521 -238 -153 7 -61 132 571 452 837 753 987 1573 1905 2010 2441 2950 3685 3728 3830 3809 3798 3765 3713 3576 3311 3102 2273 1880 896 229 14 -605 -1036 -1602 -2413 -2951 -3484 -3767 -4204 -4043 -4429 -4470 -4080 -4140 -3802 -4149 -4134 -3750 -3515 -3237 -3200 -2851 -2274 -1967 -1916 -1663 -1231 -1351 -986 -925 -909 -1112 -1037 -668 -510 -588 -153 -277 88 -63 260 307 279 -28 -89 20 -134 -238 -544 -549 -253 -205 -157 -374 -351 -312 -264 67 -121 -96 -78 -48 -34 -70 -88 -78 -87 -104 -107 -117 124 124 -123 -114 123 95 99 -113 -60 258 316 315 274 -6 -8 283 313 303 308 317 302 318 359 375 142 359 323 338 371 140 163 162 363 276 -37 265 348 142 148 383 376 158 195 196 230 243 225 209 185 220 518 565 588 593 579 587 584 579 596 616 619 616 622 385 406 408 414 444 447 413 453 498 798 819 834 857 867 883 664 702 704 690 696 695 695 692 702 731 1040 1096 1140 915 913 1127 1131 903 1150 1117 1120 1142 922 959 1301 1361 1161 1403 1160 1168 1164 1393 1178 1206 1247 1543 1558 1585 1610 1649 1425 1441 1478 1494 1807 1862 1894 1912 1682 1699 1713 1722 1733 1721 1731 1788 2090 2159 1968 2007 1988 1959 1931 2171 1937 1964 2013 2043 2310 2331 2331 2345 2383 2420 2404 2356 2341 2336 2334 2327 2324 2326 2028 2028 2341 2394 2425 2411 2351 2031 1977 1930 2161 2139 2106 2074 2050 2050 1789 1753 1679 1829 1481 1652 1610 1579 1274 1231 1207 1170 1314 995 961 917 1110 755 695 883 830 769 447 635 541 195 136 342 297 -33 -114 60 -257 -302 -346 -367 -172 -234 -536 -625 -449 -502 -786 -773 -817 -868 -663 -712 -727 -737 -751 -1029 -1047 -1064 -1086 -1126 -922 -1003 -1317 -1333 -1014 -998 -1281 -1318 -1345 -1344 -1315 -1020 -991 -1004 -1016 -1010 -1285 -1304 -1017 -1001 -1312 -1352 -1347 -1322 -1298 -1298 -1308 -1330 -1337 -1344 -1319 -1285 -1296 -1307 -1330 -1355 -1364 -1357 -1369 -1357 -1341 -1322 -1318 -1016 -1001 -1020 -1289 -1296 -1290 -1286 -1290 -1305 -1310 -1309 -1331 -1353 -1368 -1352 -1305 -967 -929 -942 -987 -1019 -1310 -1323 -1329 -1318 -1309 -1307 -1022 -993 -980 -999 -997 -1011 -1014 -1014 -1003 -977 -957 -962 -986 -991 -963 -948 -961 -974 -990 -998 -979 -964 -1005 -1024 -975 -926 -934 -929 -948 -962 -973 -934 -923 -918 -920 -937 -914 -1141 -1137 -1144 -1135 -1136 -905 -909 -1136 -1118 -1106 -1071 -1058 -1050 -1063 -1082 -1079 -1028 -758 -768 -766 -1034 -1029 -1032 -1027 -728 -686 -682 -669 -662 -650 -676 -716 -720 -716 -700 -673 -870 -895 -669 -654 -868 -811 -805 -807 -804 -793 -807 -841 -837 -854 -867 -889 -644 -645 -895 -893 -871 -882 -879 -846 -828 -835 -860 -836 -800 -788 -800 -779 -773 -772 -506 -492 -471 -464 -456 -475 -474 -781 -817 -789 -504 -781 -509 -769 -477 -447 -417 -413 -406 -419 -425 -429 -412 -434 -456 -491 -487 -457 -445 -410 -402 -408 -440 -462 -487 -487 -498 -490 -510 -776 -477 -412 -633 -396 -437 -433 -390 -637 -632 -604 -551 -241 -192 -161 -143 -130 -366 -323 -259 31 73 -123 -61 -22 256 -6 -33 -54 -51 -54 -47 -64 124 37 54 124 -17 305 370 173 236 592 400 423 444 491 791 792 506 455 407 638 600 602 570 550 214 377 274 -66 -125 45 0 -323 -148 -218 -529 -548 -562 -539 -246 -222 -233 -548 -617 -441 -501 -776 -779 -786 -799 -844 -845 -869 -890 -895 -885 -852 -832 -812 -810 -813 -785 -511 -495 -470 -462 -455 -465 -431 -461 -510 -784 -776 -787 -824 -848 -840 -836 -841 -831 -823 -843 -831 -843 -832 -784 -504 -506 -497 -491 -486 -506 -790 -815 -838 -842 -844 -829 -823 -802 -771 -497 -480 -456 -442 -461 -502 -797 -777 -778 -776 -798 -798 -773 -781 -784 -781 -509 -493 -488 -486 -493 -490 -489 -487 -488 -488 -483 -461 -426 -630 -549 -208 -371 1 -98 333 532 467 679 1151 1287 1262 1798 2138 2574 3077 3592 3724 4168 4208 4175 4126 3818 3911 3592 3143 2561 1901 992 390 104 -619 -1050 -1585 -2030 -3098 -3694 -3744 -4001 -4427 -4352 -4696 -4640 -4232 -4070 -4055 -4060 -4210 -3726 -3665 -3364 -2765 -2435 -2348 -1784 -1796 -1579 -1386 -987 -1124 -760 -714 -698 -658 -800 -394 -539 -379 2 120 -90 -71 -36 -87 91 18 -312 -144 -197 -225 -225 -228 -230 -215 -207 -163 -370 -308 29 88 -101 -41 -19 -32 -76 -119 78 32 -271 -286 -287 -288 -282 -278 10 56 83 117 112 92 74 70 66 68 87 108 -127 -111 -112 121 -119 -102 -114 -115 -89 -60 -53 -87 -54 265 276 265 -7 264 275 270 -2 -32 -25 285 338 135 152 149 170 164 143 355 320 308 347 381 175 201 212 211 250 528 521 545 588 617 623 387 414 449 466 451 427 410 416 445 452 470 477 781 818 814 805 814 835 864 862 868 651 685 708 754 1026 765 742 1034 1070 1100 1140 933 954 961 955 956 956 960 974 1006 996 958 968 1311 1406 1210 1241 1253 1271 1570 1609 1644 1419 1429 1436 1466 1504 1527 1808 1837 1880 1667 1726 1777 2066 2063 2064 2069 2099 2162 1930 1934 1930 1945 1994 2313 2361 2382 2382 2401 2423 2369 2338 2349 2378 2400 2381 2384 2426 2232 2252 2232 2223 2217 2227 2233 2237 2229 2216 2234 2292 2566 2284 2234 2227 2204 2418 2387 2376 2358 2008 1955 1991 1987 1963 1932 2169 2110 1785 1710 1896 1850 1800 1483 1419 1599 1544 1245 1191 1396 1324 989 907 1094 1042 751 700 865 778 449 638 566 238 169 380 326 268 -52 -104 108 43 -289 -384 -175 -210 -516 -585 -411 -497 -822 -884 -657 -664 -659 -678 -707 -735 -749 -1031 -1050 -1097 -1118 -1128 -915 -969 -1285 -1307 -1317 -1296 -1284 -1293 -1016 -1006 -990 -1015 -1302 -1329 -1356 -1360 -1330 -1298 -1321 -1299 -1287 -1022 -1286 -1015 -1000 -989 -977 -968 -976 -1011 -1285 -1288 -1011 -1008 -992 -978 -977 -981 -979 -982 -975 -956 -934 -933 -951 -938 -952 -949 -954 -948 -967 -951 -954 -960 -946 -925 -898 -1123 -1096 -1103 -1126 -927 -950 -910 -1086 -1052 -762 -761 -1069 -1109 -1095 -1071 -1043 -1044 -1048 -1049 -759 -751 -768 -1032 -760 -750 -728 -727 -729 -726 -706 -690 -681 -714 -745 -748 -755 -750 -727 -710 -717 -728 -742 -746 -752 -742 -755 -761 -758 -738 -751 -745 -763 -1025 -754 -727 -715 -728 -746 -749 -712 -664 -884 -863 -883 -680 -709 -707 -704 -695 -693 -674 -658 -891 -872 -858 -863 -646 -681 -697 -704 -695 -667 -890 -874 -839 -818 -810 -835 -886 -663 -660 -887 -847 -815 -802 -814 -835 -853 -840 -823 -827 -824 -832 -847 -851 -834 -795 -782 -781 -794 -819 -849 -850 -846 -853 -891 -648 -887 -842 -817 -788 -780 -783 -824 -849 -862 -869 -869 -865 -863 -836 -803 -776 -779 -805 -832 -872 -851 -809 -780 -782 -804 -819 -831 -840 -853 -815 -802 -809 -804 -783 -504 -505 -504 -505 -489 -481 -463 -445 -412 -612 -577 -575 -559 -233 -166 -369 -352 -340 -334 -279 47 88 113 -118 -104 -115 -122 -123 104 86 91 118 -97 -25 309 155 246 573 607 386 418 443 462 464 468 434 396 620 581 540 233 189 142 346 297 -21 -107 71 24 4 -283 -330 -367 -140 -156 -178 -201 -204 -181 -178 -215 -535 -599 -387 -410 -443 -496 -827 -863 -838 -856 -876 -883 -864 -796 -480 -452 -444 -442 -444 -430 -404 -638 -620 -634 -410 -461 -504 -783 -770 -497 -492 -785 -816 -823 -809 -787 -784 -782 -803 -814 -802 -788 -821 -819 -770 -772 -794 -837 -827 -815 -823 -849 -866 -878 -853 -817 -790 -781 -774 -784 -787 -506 -500 -505 -478 -467 -786 -817 -798 -508 -486 -499 -805 -864 -668 -674 -645 -879 -881 -874 -863 -831 -825 -844 -866 -883 -884 -855 -809 -467 -407 -615 -540 -200 -368 36 -29 220 434 653 1131 1329 1606 1676 2042 2439 3160 3628 3925 3785 3751 3721 3965 3900 3670 3038 2816 1982 1612 717 372 -146 -855 -1324 -1897 -2445 -3205 -3891 -4124 -4074 -4312 -4574 -4894 -4568 -4695 -4346 -4319 -4266 -4395 -4142 -3853 -3316 -3005 -2938 -2598 -2033 -1790 -1832 -1602 -1398 -1019 -958 -903 -1073 -747 -877 -488 -596 -205 -347 19 31 15 -271 -309 -381 -223 -542 -611 -403 -433 -419 -631 -606 -566 -540 -517 -177 -332 -261 32 46 3 -272 -281 -320 -374 -382 -157 -169 -158 -137 -355 -348 -321 -291 23 51 78 85 107 114 110 125 -99 -95 119 98 87 60 46 25 36 57 61 85 -118 -68 -84 -100 -108 -127 102 118 -113 -88 -77 -59 -51 -36 -29 -21 -17 -38 -48 -24 259 262 275 280 291 283 303 314 338 343 324 305 299 335 327 314 300 295 332 143 212 544 558 517 517 253 249 522 583 615 617 628 636 628 403 432 475 504 778 808 806 770 486 490 488 774 808 871 678 686 656 663 685 674 681 719 1025 1056 1095 1123 1112 1095 1116 932 1281 1318 1326 1358 1398 1182 1207 1213 1222 1244 1548 1613 1661 1433 1437 1645 1642 1453 1519 1840 1847 1832 1831 1889 1919 1905 1911 1717 1741 1768 2052 2050 2058 2060 2073 2093 2123 1925 1958 1948 1945 1939 1941 1957 1944 2160 2144 2161 1943 1992 2310 2336 2319 2001 1952 1986 2017 2022 1979 2165 2129 2164 1984 2004 1925 2079 1758 1724 1701 1677 1891 1815 1477 1647 1580 1541 1259 1537 1266 1217 1381 1292 961 899 1105 1084 1034 683 857 507 429 404 392 574 211 381 313 261 -51 116 37 -343 -150 -154 -190 -236 -559 -626 -400 -447 -509 -796 -802 -839 -655 -725 -1033 -1084 -1078 -1081 -1093 -1110 -1131 -1145 -943 -980 -1000 -1301 -1353 -1390 -1159 -1170 -1352 -1305 -1348 -1384 -1403 -1402 -1189 -1219 -1252 -1546 -1572 -1559 -1276 -1255 -1251 -1233 -1239 -1255 -1551 -1539 -1277 -1552 -1274 -1272 -1264 -1273 -1547 -1548 -1562 -1590 -1568 -1279 -1245 -1257 -1279 -1566 -1594 -1595 -1582 -1557 -1571 -1554 -1543 -1240 -1192 -1165 -1172 -1405 -1173 -1171 -1168 -1155 -1156 -1159 -1153 -1391 -1402 -1389 -1384 -1389 -1388 -1174 -1195 -1154 -1368 -1332 -1332 -1378 -1376 -1354 -1357 -1365 -1161 -1168 -1364 -1310 -1303 -1295 -1284 -1300 -1321 -1345 -1348 -1319 -1308 -1285 -1008 -1015 -1013 -1283 -1015 -989 -985 -964 -927 -945 -978 -989 -970 -971 -990 -1023 -1301 -1339 -1302 -956 -1146 -1143 -966 -1011 -990 -939 -1139 -1112 -1127 -1135 -1133 -1126 -1140 -1146 -1119 -1086 -1095 -1086 -1098 -1118 -1127 -900 -1120 -1055 -1047 -1062 -1066 -1071 -1089 -1086 -1085 -1121 -1130 -901 -1105 -1067 -1061 -1066 -1043 -1025 -1051 -1092 -1107 -1097 -1113 -1116 -1077 -1103 -1110 -1099 -1095 -1031 -734 -734 -1025 -1058 -1087 -1072 -766 -750 -751 -763 -1027 -755 -750 -764 -752 -766 -1041 -1043 -738 -695 -707 -706 -696 -673 -679 -725 -714 -714 -696 -664 -664 -673 -699 -672 -656 -878 -862 -848 -799 -508 -484 -486 -446 -432 -390 -602 -586 -254 -186 -160 -132 -352 -326 -300 17 81 54 11 -306 -347 -345 -297 -268 38 72 -73 285 145 180 198 221 517 562 617 604 594 584 526 167 361 339 332 315 264 -49 -100 77 32 -272 -297 -365 -213 -538 -562 -547 -520 -519 -558 -576 -552 -570 -637 -462 -509 -769 -504 -461 -455 -505 -841 -893 -674 -660 -873 -864 -872 -853 -861 -842 -802 -793 -799 -785 -825 -830 -796 -793 -849 -655 -691 -715 -732 -705 -669 -894 -644 -695 -727 -725 -707 -675 -642 -870 -870 -880 -886 -848 -788 -789 -832 -880 -867 -885 -886 -840 -821 -852 -645 -895 -872 -849 -830 -831 -812 -820 -831 -813 -804 -814 -856 -874 -660 -656 -858 -801 -793 -511 -772 -805 -844 -830 -837 -865 -879 -664 -655 -860 -841 -817 -775 -471 -610 -523 -178 -280 -95 342 249 428 643 1092 1321 1640 1713 2323 2504 2967 3671 3714 4126 4168 4135 3832 3714 3500 3402 2854 1966 1540 852 286 -169 -828 -1014 -1891 -2441 -3390 -3848 -4220 -4448 -4306 -4624 -4338 -4457 -4354 -4391 -4407 -4053 -4157 -3896 -3293 -3184 -2552 -2201 -1934 -1747 -1817 -1618 -1189 -1304 -935 -1100 -756 -659 -807 -437 -584 -213 -354 5 74 104 -114 -109 120 103 43 -320 -188 -534 -582 -581 -575 -583 -541 -223 -162 -381 -331 -290 -258 18 2 9 11 38 64 36 8 -262 -290 -310 -286 -295 -262 -264 39 89 110 91 66 64 124 -68 -65 -101 124 -103 -95 -77 -81 -87 -92 -92 -22 282 256 -34 -2 269 271 307 356 373 376 367 374 333 303 341 160 206 242 525 567 589 588 568 602 609 635 412 409 385 623 422 473 496 495 477 439 389 617 396 479 817 877 873 854 850 842 858 848 828 651 723 682 847 863 676 738 746 1044 1064 1069 1058 1029 1029 1073 1093 1129 914 982 1002 1281 1318 1340 1355 1344 1379 1161 1171 1169 1185 1240 1264 1537 1544 1276 1273 1560 1581 1566 1549 1272 1559 1633 1449 1482 1482 1514 1816 1829 1846 1888 1687 1737 1709 1706 1784 2110 2152 1938 1966 1963 1966 1971 2022 2009 1976 2013 2304 2311 2038 2020 1993 1959 2160 2162 1942 1971 2008 2331 2379 2374 2361 2344 2307 2042 2015 2028 2309 2335 2354 2392 2178 2418 2356 2337 2030 1965 1936 1937 1934 2150 2113 2100 2086 2066 1765 1718 1675 1895 1819 1453 1606 1586 1545 1232 1217 1169 1343 1294 960 1099 750 657 793 455 416 418 416 389 588 240 198 307 -15 -123 122 111 126 116 59 -270 -372 -179 -522 -564 -595 -588 -633 -403 -400 -635 -445 -788 -858 -660 -656 -682 -663 -895 -671 -718 -748 -750 -759 -768 -747 -747 -1041 -1066 -1064 -1080 -916 -995 -966 -967 -933 -908 -1136 -912 -980 -996 -955 -901 -1121 -1092 -1086 -1129 -1119 -1121 -1120 -1127 -1102 -1120 -1130 -1095 -1143 -934 -897 -1072 -1041 -1119 -1120 -1099 -1071 -1075 -1070 -1059 -1094 -1129 -1096 -1045 -1055 -1051 -1060 -1060 -763 -742 -751 -761 -1069 -1106 -1137 -1126 -1074 -1035 -745 -740 -1035 -1062 -1070 -761 -707 -690 -687 -686 -698 -666 -893 -853 -876 -643 -882 -873 -843 -868 -849 -824 -851 -669 -686 -642 -872 -830 -828 -893 -656 -896 -894 -895 -654 -885 -886 -675 -713 -726 -702 -877 -861 -871 -643 -724 -742 -724 -706 -646 -880 -655 -664 -644 -867 -871 -883 -839 -868 -868 -860 -875 -878 -875 -842 -818 -830 -846 -848 -847 -831 -790 -799 -835 -890 -665 -855 -827 -814 -803 -789 -819 -807 -783 -780 -814 -866 -866 -854 -821 -803 -820 -774 -486 -481 -467 -495 -772 -789 -825 -792 -502 -781 -846 -876 -841 -819 -655 -719 -679 -866 -836 -831 -836 -886 -670 -869 -838 -854 -641 -675 -664 -873 -509 -415 -387 -395 -417 -437 -395 -609 -569 -527 -249 -227 -249 -212 -169 -376 -346 -329 -293 16 74 102 83 25 -257 -279 -327 -134 -221 -248 -178 -323 51 -74 -30 262 325 139 165 176 190 250 579 599 618 578 212 377 335 348 383 326 -38 -103 107 51 0 -341 -153 -236 -564 -621 -403 -617 -543 -244 -517 -575 -404 -481 -786 -838 -854 -866 -656 -710 -728 -684 -691 -699 -698 -689 -681 -703 -718 -734 -1031 -1051 -738 -646 -860 -864 -878 -890 -880 -882 -699 -706 -738 -1061 -1110 -1104 -1092 -1109 -1127 -1090 -1047 -1036 -731 -687 -676 -663 -691 -679 -661 -692 -689 -689 -695 -672 -642 -888 -840 -789 -814 -647 -643 -887 -859 -837 -828 -836 -849 -871 -647 -655 -647 -896 -643 -655 -896 -896 -890 -642 -857 -799 -501 -769 -819 -836 -842 -845 -840 -823 -486 -414 -582 -250 -172 -346 21 -72 358 537 496 698 930 1388 1630 1724 2178 2865 3022 3710 3768 4166 4178 4214 4188 3818 3896 3589 3092 2231 1842 930 616 -81 -199 -852 -1169 -1960 -2737 -3255 -3565 -3809 -4192 -3992 -4165 -3776 -3904 -3894 -3737 -3771 -3927 -3463 -3425 -3102 -2502 -2184 -1925 -1712 -1523 -1568 -1360 -959 -913 -1060 -745 -667 -856 -471 -564 -137 -263 92 -54 -23 -27 -13 -76 -128 44 -263 -339 -360 -360 -368 -147 -379 -369 -321 20 80 104 -79 -16 316 346 355 301 268 -48 -45 -33 -39 -68 -52 -11 -25 -12 -10 272 330 337 354 347 375 382 383 362 140 166 177 160 376 321 313 350 355 146 155 182 215 223 234 242 255 521 224 236 252 551 612 638 635 592 606 618 622 621 619 609 597 572 582 621 391 405 421 401 425 440 484 488 493 498 489 493 492 503 816 849 817 799 827 870 889 645 692 715 710 675 668 714 1048 1062 1037 1069 1101 1131 905 929 909 896 929 925 1142 1144 939 989 1292 1289 1309 1331 1354 1373 1385 1157 1185 1213 1260 1582 1621 1634 1607 1597 1605 1599 1590 1619 1428 1484 1819 1862 1885 1895 1917 1914 1880 1853 1868 1729 1789 2109 2138 2134 2159 1925 1927 2170 1930 1933 1954 1975 2037 2327 2036 2346 2384 2379 2352 2341 2368 2395 2406 2177 2200 2237 2262 2239 2227 2186 2194 2256 2276 2249 2243 2249 2282 2574 2293 2268 2229 2191 2391 2340 2356 2351 2042 1957 2134 2110 2131 2105 1787 1716 1903 1821 1512 1441 1634 1613 1569 1215 1375 1329 1012 960 924 1138 1066 706 887 846 789 473 390 581 515 184 364 325 286 -29 -91 97 35 -307 -151 -232 -539 -572 -591 -620 -438 -772 -829 -888 -675 -671 -669 -705 -761 -1069 -1094 -1127 -1147 -1134 -1105 -1048 -1053 -1116 -926 -924 -922 -942 -977 -968 -976 -973 -972 -992 -1018 -1312 -1364 -1377 -1370 -1153 -1175 -1404 -1357 -1367 -1365 -1353 -1362 -1396 -1179 -1185 -1208 -1203 -1190 -1408 -1169 -1166 -1387 -1365 -1380 -1154 -1161 -1166 -1173 -1154 -1398 -1395 -1394 -1396 -1396 -1393 -1399 -1408 -1389 -1360 -1344 -1353 -1396 -1174 -1208 -1198 -1176 -1400 -1368 -1355 -1404 -1374 -1353 -1375 -1402 -1404 -1160 -1392 -1344 -1286 -1006 -976 -955 -928 -930 -916 -964 -998 -1012 -1011 -978 -914 -1124 -1143 -904 -1151 -1141 -1148 -903 -897 -900 -1139 -901 -914 -926 -930 -918 -1147 -1123 -1102 -1092 -1080 -1070 -1086 -1088 -1051 -1080 -1082 -1090 -1104 -1134 -1137 -1131 -1093 -1037 -761 -1044 -1088 -1146 -909 -904 -1126 -1131 -899 -937 -944 -938 -927 -1152 -1101 -1111 -1134 -906 -1120 -1094 -1063 -1050 -753 -755 -1027 -1033 -1025 -1029 -768 -1062 -1081 -1078 -1063 -1036 -724 -692 -721 -764 -1033 -1064 -1100 -1101 -1088 -1074 -1053 -768 -737 -658 -678 -728 -753 -768 -1066 -1092 -1113 -1108 -1089 -1079 -1062 -1056 -1065 -1055 -1033 -768 -1044 -1049 -1026 -733 -705 -685 -650 -642 -668 -679 -674 -660 -878 -834 -812 -794 -824 -844 -786 -481 -454 -422 -389 -603 -565 -519 -226 -214 -195 -158 -365 -313 -297 -356 -158 -207 -218 -190 -139 -384 -371 -284 75 -97 -21 288 330 140 196 209 226 231 192 131 334 280 -22 -34 -8 -28 -101 64 43 -274 -132 -203 -220 -223 -546 -563 -553 -552 -569 -589 -631 -430 -501 -824 -847 -841 -835 -840 -870 -692 -764 -1055 -1085 -1094 -1070 -754 -688 -660 -668 -673 -672 -686 -675 -644 -865 -656 -686 -652 -881 -879 -892 -659 -708 -764 -1040 -1031 -752 -734 -704 -673 -652 -888 -878 -886 -654 -647 -885 -885 -878 -867 -862 -679 -721 -731 -732 -723 -712 -700 -686 -685 -896 -879 -895 -641 -658 -894 -648 -643 -844 -791 -779 -512 -769 -781 -809 -804 -815 -801 -825 -819 -872 -886 -887 -646 -876 -850 -810 -491 -440 -608 -252 -181 -308 108 330 536 501 669 1097 1291 1610 1721 2370 2837 3042 3472 3964 3759 3736 3725 3942 3858 3623 2980 2458 2056 1404 777 -32 -231 -664 -1374 -1689 -2440 -3382 -3536 -3821 -3971 -4407 -4272 -4235 -4076 -4110 -4123 -3988 -4213 -3773 -3485 -3230 -3184 -2857 -2284 -1975 -1698 -1452 -1259 -1370 -1021 -934 -1144 -1096 -764 -655 -770 -617 -202 -303 63 102 122 112 105 67 6 -344 -195 -542 -590 -584 -556 -240 -179 -367 -331 -292 1 56 93 70 100 117 124 94 97 72 50 10 -276 7 4 -280 -310 -277 -269 -259 29 97 124 -120 114 56 78 97 98 86 94 42 30 31 29 61 103 -103 -89 -36 -30 -26 -27 274 278 289 294 290 269 267 276 290 373 158 146 368 378 337 302 271 294 317 346 143 157 148 179 186 216 224 216 208 213 239 519 531 558 600 622 400 420 415 429 399 407 419 437 448 492 792 806 822 828 794 778 776 800 834 873 891 659 696 692 663 855 839 663 1024 1074 1089 1101 1136 911 920 915 914 936 987 1281 1305 1356 1196 1238 1250 1274 1553 1272 1247 1555 1629 1453 1499 1521 1513 1533 1807 1835 1880 1886 1873 1869 1903 1666 1706 1736 1755 1773 1773 1764 1775 2063 2084 2097 2118 2147 2161 1922 1935 1945 1965 1963 1978 1984 1992 2009 2304 2044 2030 2039 2320 2336 2047 1997 1962 1946 1958 2013 2307 2311 2039 2006 1998 1985 1956 2162 2149 2113 2063 1782 1752 1707 1668 1872 1511 1652 1559 1239 1215 1199 1157 1400 1381 1299 929 1061 725 649 857 853 818 776 449 400 598 520 165 322 -4 -84 -103 -119 60 -307 -152 -204 -237 -520 -571 -630 -469 -829 -857 -858 -862 -892 -683 -743 -1034 -1035 -1055 -1096 -1144 -939 -985 -1018 -1285 -1323 -1340 -1334 -1325 -1320 -1319 -1324 -1320 -1322 -1354 -1366 -1389 -1154 -1168 -1205 -1250 -1237 -1203 -1179 -1191 -1192 -1176 -1165 -1181 -1203 -1223 -1213 -1203 -1198 -1187 -1162 -1398 -1386 -1396 -1167 -1189 -1193 -1213 -1240 -1254 -1272 -1547 -1543 -1238 -1185 -1165 -1390 -1393 -1390 -1383 -1399 -1400 -1189 -1183 -1373 -1341 -1368 -1395 -1378 -1345 -1333 -1321 -1319 -1304 -1309 -1344 -1344 -1339 -1319 -1315 -1343 -1319 -1293 -1282 -990 -988 -1003 -994 -972 -966 -1015 -1348 -1318 -1291 -1288 -1020 -986 -966 -954 -943 -959 -972 -981 -980 -977 -977 -977 -979 -970 -933 -905 -907 -1146 -1146 -912 -946 -958 -979 -991 -959 -917 -1119 -1107 -1114 -1123 -1083 -1053 -1049 -1080 -1111 -1125 -1114 -1107 -1105 -1101 -1117 -1094 -1085 -1078 -1082 -1089 -1052 -1033 -1029 -1032 -768 -1034 -1031 -1035 -750 -721 -714 -700 -691 -693 -702 -696 -707 -698 -713 -717 -736 -716 -712 -705 -662 -891 -659 -725 -1031 -1031 -765 -720 -677 -657 -689 -713 -709 -675 -641 -654 -681 -711 -727 -708 -700 -732 -742 -738 -723 -683 -686 -660 -880 -871 -650 -676 -671 -666 -666 -666 -680 -681 -659 -652 -876 -873 -895 -877 -858 -849 -811 -769 -505 -489 -443 -413 -628 -592 -582 -568 -256 -221 -163 -353 -320 -292 -277 -276 18 36 51 64 36 -279 -336 -320 -295 0 87 -69 279 366 189 519 535 569 574 626 627 629 554 192 145 129 138 162 163 168 355 -16 -98 85 27 -289 -340 -159 -206 -239 -515 -526 -571 -585 -621 -386 -427 -458 -493 -777 -823 -869 -650 -677 -720 -751 -739 -722 -736 -1031 -1039 -715 -661 -666 -692 -681 -658 -864 -864 -853 -851 -889 -642 -652 -661 -888 -660 -707 -767 -1068 -1058 -1030 -710 -664 -655 -669 -694 -675 -680 -692 -691 -697 -705 -727 -714 -703 -694 -675 -676 -684 -664 -643 -891 -888 -644 -656 -657 -895 -868 -856 -860 -846 -813 -820 -845 -870 -858 -838 -843 -856 -882 -643 -893 -873 -846 -836 -817 -798 -802 -803 -808 -795 -493 -451 -407 -571 -208 -325 69 -19 169 601 816 1056 1283 1547 1838 2148 2273 2755 3211 3545 3729 3782 3805 3811 3734 3513 3400 2911 2310 1429 1047 175 -356 -843 -1288 -1502 -2188 -2995 -3549 -4117 -4074 -4479 -4637 -4679 -4323 -4411 -4043 -4053 -4009 -4114 -3882 -3587 -2999 -2912 -2571 -2011 -1714 -1482 -1549 -1312 -1140 -1051 -1025 -745 -683 -864 -496 -636 -228 -325 64 -80 -19 -9 -48 -93 89 17 -328 -381 -161 -218 -248 -246 -228 -198 -158 -347 -279 20 52 72 74 67 77 97 106 109 63 43 43 14 -259 -258 -267 -269 8 23 28 76 -122 -97 -96 -102 -119 -126 125 127 116 92 102 120 98 98 -84 -14 -5 -27 -32 -32 -36 -41 -33 -41 -42 -14 278 313 313 302 275 272 299 344 128 132 132 146 191 202 218 210 204 172 153 191 234 529 542 548 544 515 236 246 528 541 557 591 621 633 390 414 448 462 475 509 810 836 847 891 695 727 721 719 739 745 708 657 653 721 1040 1082 1120 906 934 973 1003 1294 1292 1290 1289 1283 1312 1349 1401 1191 1206 1232 1276 1572 1601 1647 1412 1660 1657 1640 1657 1408 1421 1473 1523 1820 1858 1914 1709 1746 1775 1772 1777 1785 2060 2091 2133 1935 1969 2012 2324 2344 2344 2338 2358 2358 2365 2399 2181 2229 2268 2299 2578 2303 2261 2256 2267 2258 2257 2267 2298 2621 2672 2675 2642 2612 2608 2593 2585 2565 2284 2268 2250 2237 2246 2270 2273 2251 2183 2358 2043 2021 1992 1966 1991 1990 1973 1926 2126 2063 1736 1664 1877 1818 1516 1454 1656 1591 1236 1155 1338 1014 932 1109 1031 704 890 815 486 412 601 525 179 368 284 -13 -21 -47 -101 89 71 27 -305 -371 -180 -525 -572 -557 -605 -393 -408 -456 -491 -835 -649 -660 -696 -691 -729 -739 -720 -746 -736 -1041 -1078 -1102 -1148 -1143 -897 -923 -907 -945 -949 -961 -965 -943 -955 -959 -992 -1293 -1294 -1289 -1018 -1011 -1011 -1002 -1009 -986 -982 -1006 -1294 -1327 -1291 -1283 -1281 -1006 -1281 -1285 -1304 -1289 -1003 -966 -946 -951 -942 -929 -951 -971 -960 -935 -913 -1118 -1067 -1082 -1118 -911 -915 -928 -924 -908 -1125 -1067 -1060 -1080 -1097 -1100 -1102 -1112 -1125 -1146 -1139 -1125 -1117 -1095 -1086 -1039 -1026 -753 -1033 -1040 -1042 -1042 -1064 -1102 -1138 -1136 -1088 -1030 -751 -1034 -1108 -1122 -1051 -748 -1025 -1025 -753 -746 -761 -764 -742 -708 -694 -681 -665 -689 -729 -736 -716 -707 -704 -703 -681 -681 -664 -671 -686 -680 -686 -699 -701 -694 -674 -871 -845 -818 -838 -825 -802 -842 -843 -842 -841 -822 -837 -851 -890 -651 -673 -654 -873 -841 -822 -834 -822 -798 -832 -863 -869 -843 -836 -819 -811 -771 -470 -470 -473 -478 -472 -483 -490 -492 -769 -771 -780 -790 -819 -795 -776 -774 -489 -496 -776 -498 -479 -441 -441 -453 -467 -498 -772 -509 -776 -507 -771 -499 -490 -448 -431 -437 -509 -772 -771 -499 -484 -488 -481 -507 -772 -479 -437 -613 -608 -614 -559 -238 -183 -138 -144 -144 -156 -377 -325 2 87 -74 -22 261 273 -5 -25 -24 257 -24 -56 -56 -32 -2 282 327 367 143 226 562 634 418 418 427 472 775 793 786 505 465 462 440 390 599 529 206 379 257 -123 46 32 27 -260 -349 -190 -222 -215 -207 -234 -242 -543 -586 -618 -637 -388 -444 -464 -479 -512 -828 -884 -859 -844 -860 -849 -797 -506 -773 -793 -833 -828 -778 -504 -448 -435 -624 -385 -446 -497 -851 -894 -681 -657 -893 -885 -844 -835 -855 -895 -648 -643 -884 -885 -881 -840 -842 -871 -862 -864 -856 -853 -851 -856 -871 -886 -884 -889 -874 -828 -794 -801 -808 -830 -826 -796 -789 -505 -481 -466 -469 -484 -491 -487 -484 -491 -498 -502 -499 -797 -809 -775 -499 -486 -486 -494 -784 -828 -847 -810 -773 -495 -441 -633 -544 -174 2 -50 192 424 863 1040 941 1389 1415 1750 2395 2843 3336 3519 3780 4133 4115 3813 3762 3882 3637 2985 2458 2122 1267 657 359 -354 -789 -996 -1885 -2668 -3354 -3492 -3763 -3988 -4227 -4642 -4637 -4282 -4387 -4067 -4082 -4024 -3825 -3555 -3280 -2966 -2886 -2257 -1942 -1913 -1657 -1195 -1019 -1128 -1047 -746 -691 -881 -785 -414 -544 -167 -297 87 -106 -102 -109 108 22 -326 -171 -518 -565 -549 -248 -249 -526 -539 -247 1 -315 -354 -300 -270 62 90 77 77 49 -286 -347 -134 -353 -383 -181 -184 -183 -179 -347 -151 -332 -313 -294 68 80 55 80 77 17 32 30 54 29 76 102 108 72 48 -17 267 -33 -51 -32 -14 -48 -41 -4 271 290 272 -19 257 319 372 298 312 320 147 140 181 185 156 179 194 210 160 371 195 512 224 173 190 202 524 560 564 571 530 212 555 569 576 567 630 605 555 575 635 416 439 440 483 501 493 507 793 462 509 781 828 853 870 640 890 709 1028 1046 1053 725 1060 1103 1096 1082 1091 1102 1107 1123 1141 936 1009 1320 1341 1342 1337 1293 1015 1314 1379 1381 1379 1393 1168 1212 1236 1245 1256 1547 1573 1607 1458 1470 1495 1501 1505 1507 1509 1534 1823 1900 1727 1744 1762 1758 1769 1785 1768 1740 1709 1917 1687 1670 1905 1667 1755 2089 2109 2085 2077 2073 2062 2065 2077 2120 2132 2055 2112 2122 2119 2117 2164 1921 1948 1929 2116 2078 1774 2049 1788 1757 1690 1879 1821 1533 1799 1525 1496 1440 1635 1588 1573 1271 1196 1175 1391 1013 945 1127 1085 1033 702 877 812 507 471 422 600 235 345 347 273 -50 -54 81 23 -264 -298 -132 -194 -588 -411 -786 -839 -794 -842 -813 -830 -667 -735 -1045 -1034 -1098 -1125 -1141 -908 -939 -1007 -1004 -1007 -1298 -1315 -1362 -1177 -1180 -1175 -1160 -1401 -1163 -1195 -1193 -1201 -1194 -1224 -1246 -1266 -1255 -1177 -1350 -1338 -1330 -1320 -1320 -1327 -1355 -1353 -1342 -1359 -1158 -1204 -1211 -1204 -1165 -1407 -1264 -1344 -1321 -1344 -1354 -1363 -1178 -1174 -1160 -1195 -1406 -1360 -1318 -1018 -998 -1013 -1006 -1015 -1012 -982 -965 -932 -926 -947 -948 -902 -923 -911 -999 -947 -998 -968 -995 -1291 -1078 -972 -1281 -905 -1133 -1110 -1140 -934 -968 -960 -920 -905 -933 -979 -973 -944 -914 -898 -1142 -1123 -1115 -1122 -1085 -1127 -1151 -931 -944 -941 -913 -1142 -1146 -1085 -1113 -1106 -1130 -933 -967 -933 -1138 -1082 -1105 -1143 -1150 -1128 -1124 -1143 -925 -903 -1127 -1076 -1037 -1030 -1040 -1059 -1090 -1084 -1067 -1062 -1048 -1092 -1082 -1070 -1025 -1031 -767 -1039 -1047 -1055 -1065 -1070 -1030 -718 -680 -664 -681 -744 -1072 -1100 -1058 -749 -731 -702 -679 -649 -882 -883 -642 -650 -650 -657 -667 -644 -866 -887 -893 -651 -664 -650 -887 -871 -653 -888 -859 -804 -494 -792 -893 -694 -678 -880 -873 -657 -658 -654 -862 -825 -826 -880 -654 -677 -687 -670 -864 -794 -509 -481 -466 -444 -471 -501 -451 -614 -546 -513 -216 -158 -347 -314 -279 -260 -304 -302 -260 29 82 121 -97 -115 114 34 -262 38 57 86 123 -50 274 356 223 617 390 623 401 424 459 442 639 621 563 532 519 243 221 182 145 369 297 -31 -89 96 -261 -351 -188 -237 -224 -237 -252 -515 -236 -218 -239 -533 -591 -387 -402 -635 -621 -390 -422 -471 -502 -776 -506 -464 -627 -567 -547 -590 -623 -616 -613 -633 -403 -437 -448 -392 -636 -417 -465 -511 -782 -477 -428 -432 -408 -427 -461 -489 -483 -457 -418 -407 -423 -424 -436 -432 -447 -479 -502 -779 -829 -829 -777 -494 -792 -821 -823 -822 -811 -821 -840 -849 -818 -781 -491 -773 -805 -808 -791 -480 -448 -465 -508 -807 -804 -505 -491 -478 -479 -467 -438 -427 -425 -455 -449 -440 -419 -429 -632 -559 -256 -217 -378 56 -7 148 604 810 702 907 1396 1408 1699 2319 2503 2980 3473 3827 4005 4038 4012 3972 4186 3833 3551 3373 2543 2134 1176 791 282 -374 -502 -1282 -1757 -2487 -3054 -3688 -3726 -4136 -4036 -4359 -4009 -4127 -3766 -3804 -3793 -3928 -3497 -3206 -3144 -2542 -2212 -2174 -1900 -1646 -1204 -1310 -925 -1098 -1036 -731 -880 -778 -427 -556 -370 55 -87 -5 305 345 314 -7 -65 -97 78 47 2 -316 -300 -269 -284 -281 20 57 -78 267 268 266 304 352 355 300 270 263 268 -11 -23 -40 -85 -125 119 -91 -51 -39 -1 308 367 352 329 330 357 374 136 144 369 279 -51 -45 -35 -22 -21 270 325 349 365 350 343 334 360 164 157 374 366 347 313 335 134 207 530 531 245 251 518 564 550 525 248 252 244 514 255 519 562 623 623 578 552 564 587 586 632 402 423 416 446 772 511 450 467 511 786 510 486 473 482 493 794 863 680 709 725 763 745 718 723 757 1055 1081 1087 1133 944 1013 1290 1287 1286 1022 1349 1171 1210 1224 1210 1212 1256 1257 1245 1227 1226 1556 1658 1491 1533 1799 1506 1485 1511 1823 1847 1855 1865 1858 1910 1731 1765 1777 1756 1761 1754 1741 2074 1920 1952 1923 2173 2168 2136 2133 2168 2173 1927 1961 2033 2388 2219 2234 2182 2377 2356 2366 2413 2412 2398 2404 2200 2267 2295 2294 2562 2562 2279 2226 2396 2341 2367 2355 2355 2391 2395 2394 2383 2347 2028 1960 2114 2098 2102 2055 1777 1737 1906 1830 1794 1489 1437 1639 1607 1563 1231 1154 1347 1012 920 1103 767 668 791 448 455 449 426 572 250 253 184 331 -31 -119 47 14 -287 -340 -377 -191 -528 -603 -395 -401 -385 -406 -493 -858 -887 -886 -889 -683 -731 -764 -1038 -1045 -1033 -755 -741 -762 -1055 -1097 -1129 -909 -939 -929 -957 -999 -1291 -1298 -1002 -953 -939 -934 -954 -976 -1005 -1300 -1315 -1330 -1339 -1337 -1309 -1293 -1003 -969 -971 -1010 -1016 -990 -955 -993 -1309 -1324 -1328 -1306 -1300 -1020 -992 -972 -981 -1003 -962 -936 -912 -914 -942 -958 -992 -1290 -1320 -1309 -1005 -975 -972 -972 -938 -909 -1139 -914 -934 -939 -956 -950 -938 -932 -969 -946 -1151 -1110 -1090 -1106 -1120 -1112 -1106 -1125 -1130 -1130 -904 -911 -1150 -903 -911 -904 -913 -916 -931 -926 -926 -899 -1135 -1126 -1110 -1103 -1112 -1102 -1070 -1047 -1060 -1076 -1097 -1109 -1087 -1083 -1072 -1079 -1117 -1096 -1071 -1089 -1081 -1081 -1085 -1076 -1086 -1094 -1055 -759 -740 -756 -1039 -1045 -1048 -1054 -1067 -1049 -1026 -1035 -1063 -1062 -758 -694 -664 -663 -685 -709 -677 -649 -679 -718 -730 -760 -739 -696 -889 -839 -854 -857 -858 -877 -647 -671 -642 -653 -671 -693 -678 -878 -835 -801 -789 -800 -841 -854 -815 -797 -506 -490 -464 -444 -451 -475 -504 -788 -511 -498 -773 -802 -834 -823 -798 -510 -473 -439 -408 -617 -609 -640 -606 -562 -560 -563 -524 -193 -369 -311 -268 29 45 58 72 113 -127 118 105 -102 -62 -83 89 48 1 -284 -268 49 -109 -14 295 131 230 534 539 529 512 532 578 633 411 427 402 588 575 578 542 229 160 345 -4 -77 120 60 25 -273 -292 -321 -332 -351 -134 -188 -185 -158 -149 -203 -255 -568 -610 -608 -618 -433 -471 -491 -782 -818 -840 -874 -880 -857 -858 -863 -865 -858 -834 -800 -787 -779 -782 -793 -810 -811 -825 -865 -660 -692 -683 -660 -886 -876 -870 -863 -852 -828 -821 -824 -819 -802 -825 -828 -818 -793 -809 -829 -862 -895 -642 -644 -896 -896 -896 -641 -649 -655 -893 -859 -842 -802 -789 -791 -800 -804 -797 -773 -479 -459 -460 -476 -487 -493 -779 -783 -494 -481 -505 -802 -815 -508 -482 -477 -450 -414 -387 -631 -566 -215 -355 33 -58 374 563 480 670 1144 1366 1611 1892 1956 2602 2808 3277 3913 4123 4177 4181 4157 3826 3925 3596 3129 2563 1724 1404 828 366 -291 -482 -998 -1715 -2507 -3059 -3629 -3924 -4103 -3992 -4045 -4002 -4101 -3731 -3772 -3819 -3736 -3523 -3232 -3158 -2842 -2292 -1998 -1730 -1501 -1276 -1350 -928 -1069 -1033 -747 -695 -893 -509 -638 -517 -339 46 -111 -31 -3 259 -23 -125 49 -270 -355 -142 -156 -163 -154 -145 -381 -295 78 110 -126 -83 -45 294 302 289 279 -22 -94 -116 113 96 75 34 60 104 108 -118 -91 -100 -73 -44 -29 258 -16 -21 -41 -71 -78 -97 -71 -10 268 288 285 -6 -10 -24 -14 -2 272 291 325 340 131 172 176 143 155 188 208 199 198 200 229 566 604 629 637 617 603 626 384 627 611 628 430 488 496 474 453 443 418 418 438 430 423 457 459 456 462 488 781 813 850 861 872 651 685 680 656 877 858 888 893 695 747 1057 1074 1076 1095 1101 1123 1131 1115 1106 1107 896 904 899 958 1008 1283 1303 1305 1330 1354 1382 1403 1403 1157 1180 1235 1264 1540 1541 1589 1609 1622 1433 1471 1474 1490 1517 1524 1816 1797 1532 1803 1825 1847 1887 1917 1683 1715 1726 1772 2063 2085 2122 2153 2142 2173 1944 1969 2011 2031 2033 2046 2316 2042 2314 2342 2361 2315 2007 1986 1995 2008 1994 2039 2308 2314 2033 2004 1990 1940 2153 2118 2110 2096 2112 2126 2147 2107 2065 1756 1729 1691 1910 1890 1844 1522 1484 1464 1425 1610 1570 1254 1172 1332 1003 942 919 897 1087 723 884 828 782 479 435 637 569 237 157 317 -19 -37 -76 106 41 -276 -310 -365 -157 -198 -560 -640 -402 -470 -773 -829 -858 -888 -674 -714 -715 -736 -1045 -1123 -915 -983 -981 -983 -1007 -987 -981 -1005 -1283 -1297 -1307 -1323 -1340 -1384 -1161 -1154 -1387 -1373 -1333 -1309 -1343 -1347 -1338 -1310 -1352 -1359 -1386 -1175 -1184 -1158 -1400 -1171 -1167 -1407 -1399 -1393 -1382 -1358 -1372 -1386 -1389 -1372 -1364 -1386 -1181 -1219 -1233 -1222 -1158 -1350 -1323 -1333 -1355 -1158 -1156 -1172 -1160 -1159 -1178 -1216 -1178 -1408 -1354 -1344 -1312 -1318 -1327 -1336 -1323 -1321 -1288 -1306 -1322 -1315 -1349 -1335 -1358 -1350 -1316 -1305 -1293 -1001 -1008 -1011 -991 -985 -977 -985 -983 -982 -995 -1003 -1289 -1291 -994 -981 -983 -950 -983 -1309 -1331 -1300 -1287 -1018 -986 -937 -1145 -1115 -1141 -925 -977 -981 -956 -907 -1126 -1119 -1120 -1131 -899 -914 -1147 -1128 -1145 -911 -918 -949 -963 -970 -986 -963 -933 -906 -1151 -1115 -1063 -1036 -1027 -1037 -1081 -1094 -1084 -1051 -765 -758 -766 -723 -725 -717 -704 -697 -682 -707 -718 -731 -1037 -1095 -1078 -1085 -1037 -748 -689 -891 -838 -839 -875 -642 -894 -663 -661 -893 -661 -667 -677 -644 -662 -661 -649 -884 -883 -888 -874 -878 -846 -819 -839 -871 -681 -675 -878 -840 -825 -830 -832 -800 -771 -484 -455 -458 -477 -782 -504 -457 -409 -405 -404 -623 -608 -630 -635 -608 -590 -552 -252 -193 -150 -351 -315 -284 -265 13 82 127 -112 -118 -96 -39 -31 -80 -118 -122 -125 -96 -49 276 357 169 249 587 400 451 465 469 492 783 795 814 805 779 494 494 479 425 623 549 222 383 305 -9 -90 98 70 65 30 1 5 18 -261 -285 -282 -309 -382 -202 -526 -558 -593 -622 -634 -630 -632 -636 -428 -447 -445 -435 -402 -386 -628 -623 -603 -588 -589 -584 -591 -592 -606 -624 -607 -615 -628 -402 -438 -450 -451 -475 -458 -438 -391 -618 -605 -598 -636 -429 -425 -421 -440 -429 -406 -429 -445 -456 -469 -492 -770 -512 -478 -439 -460 -499 -770 -475 -439 -447 -449 -432 -436 -442 -418 -636 -625 -634 -385 -413 -419 -440 -430 -426 -418 -419 -426 -427 -441 -440 -416 -387 -620 -603 -551 -515 -197 -361 12 -83 331 532 505 724 927 1382 1584 1834 2112 2229 2929 3412 3856 4134 3985 3990 3977 4207 3817 3544 3359 2860 2030 1630 720 138 -263 -625 -1076 -1426 -2223 -3188 -3610 -3900 -4129 -4035 -4425 -4418 -4041 -4136 -4103 -4168 -4121 -3939 -3634 -3054 -2695 -2598 -2307 -1787 -1793 -1544 -1321 -913 -1041 -699 -642 -821 -491 -404 -546 -157 -270 110 -51 270 309 338 325 266 -107 38 -294 -372 -168 -168 -156 -380 -325 -266 60 103 -121 -80 -56 -28 -5 257 271 288 270 -32 -62 -82 -95 -96 -98 -96 -58 -49 -50 -21 -3 268 -26 -10 282 322 341 343 321 294 -17 -21 330 184 247 215 193 162 189 176 155 161 177 222 233 512 518 521 229 243 516 518 532 516 550 536 540 577 551 543 248 541 584 595 586 592 587 390 454 485 463 444 443 420 628 635 401 448 497 809 846 870 874 872 865 860 833 833 838 877 660 674 680 680 690 701 723 766 1076 1095 1125 1145 903 914 943 981 992 1007 1285 1299 1314 1331 1357 1390 1391 1407 1187 1193 1211 1203 1206 1236 1562 1638 1449 1469 1432 1643 1660 1413 1641 1655 1489 1818 1876 1919 1692 1731 1759 1775 2050 2085 2093 2115 2159 1946 1982 2005 2015 2046 2341 2376 2414 2424 2369 2339 2380 2193 2246 2237 2258 2274 2250 2211 2256 2563 2587 2572 2565 2596 2618 2594 2581 2592 2592 2580 2583 2583 2585 2572 2293 2281 2264 2248 2216 2177 2381 2307 2011 1984 1968 1949 1950 2166 2118 2050 1736 1674 1850 1792 1472 1414 1626 1582 1547 1226 1385 1290 960 911 1126 1056 727 691 875 768 416 580 516 233 179 137 346 285 -64 101 18 -302 -383 -168 -223 -526 -551 -574 -630 -399 -420 -446 -498 -804 -845 -848 -643 -688 -722 -743 -768 -1046 -1061 -1061 -1093 -1109 -1126 -902 -904 -918 -910 -913 -933 -950 -961 -993 -1013 -987 -933 -922 -935 -966 -972 -932 -924 -947 -961 -958 -964 -970 -990 -960 -935 -926 -948 -941 -922 -914 -899 -908 -922 -947 -948 -942 -929 -940 -942 -936 -949 -968 -940 -907 -1140 -1150 -900 -1146 -1144 -1139 -1105 -1097 -1075 -1092 -1069 -1063 -1098 -1127 -1096 -1074 -1069 -1081 -1071 -1043 -1045 -1038 -767 -745 -1034 -1051 -1064 -1064 -1070 -1050 -1029 -1033 -1034 -701 -686 -660 -692 -710 -680 -665 -698 -747 -765 -729 -678 -686 -654 -887 -876 -872 -887 -882 -876 -642 -676 -662 -642 -876 -845 -840 -820 -814 -817 -836 -851 -829 -843 -820 -828 -812 -845 -853 -855 -826 -780 -807 -832 -865 -847 -819 -820 -860 -895 -884 -866 -868 -641 -643 -648 -668 -683 -683 -669 -668 -673 -701 -714 -719 -714 -679 -654 -657 -671 -677 -663 -867 -828 -798 -807 -844 -882 -887 -875 -870 -856 -846 -827 -813 -809 -800 -775 -780 -783 -778 -789 -777 -509 -504 -781 -776 -507 -447 -420 -398 -405 -417 -464 -502 -500 -486 -470 -493 -486 -500 -772 -775 -463 -429 -416 -444 -505 -774 -494 -460 -409 -594 -538 -514 -226 -214 -210 -187 -372 -278 39 78 115 -116 -111 -118 -123 -86 -66 -54 -86 -99 -125 123 -99 -16 315 363 150 214 543 635 427 469 495 489 470 440 443 422 395 617 589 551 252 194 170 382 325 -4 -97 55 -279 -311 -371 -213 -247 -213 -222 -196 -205 -227 -558 -389 -453 -471 -484 -799 -855 -680 -689 -689 -679 -712 -742 -749 -705 -643 -844 -836 -849 -857 -865 -850 -800 -777 -771 -783 -786 -827 -850 -878 -895 -650 -696 -724 -744 -720 -711 -727 -757 -767 -748 -714 -701 -703 -670 -654 -656 -662 -642 -895 -895 -896 -644 -667 -687 -677 -702 -733 -708 -688 -681 -677 -670 -652 -643 -668 -690 -698 -694 -700 -688 -685 -666 -653 -876 -852 -871 -895 -645 -644 -669 -660 -894 -677 -705 -700 -661 -866 -831 -826 -470 -606 -243 -365 20 -60 147 609 858 1121 1354 1619 1701 2372 2836 3069 3483 3731 3827 3801 3782 3755 3872 3601 3182 2650 1777 1359 474 -101 -549 -724 -1188 -2050 -2509 -3431 -3566 -3832 -4068 -4298 -4736 -4735 -4632 -4247 -4232 -4229 -4369 -4197 -3955 -3692 -3405 -3127 -2829 -2227 -2152 -1873 -1662 -1246 -1386 -1326 -985 -925 -1111 -754 -853 -469 -577 -203 -349 -264 19 11 -300 -140 -196 -548 -633 -462 -774 -796 -487 -416 -604 -561 -518 -219 -177 -374 -339 -326 -320 -328 -344 -344 -346 -344 -384 -175 -226 -210 -174 -150 -378 -350 -333 -331 -332 -313 -299 -326 -347 -323 -278 4 8 -263 5 19 6 -263 -258 17 35 34 25 22 37 64 100 111 106 108 124 -123 127 -112 -96 -79 -88 -77 -77 -77 -70 -53 -56 -54 -40 -3 292 336 365 365 345 359 381 365 375 137 151 169 183 213 223 224 201 224 239 222 526 251 240 217 207 254 591 614 629 621 608 387 427 481 780 784 798 831 859 871 650 694 682 674 723 1024 1046 1093 910 927 1105 1102 1087 1114 1142 931 987 1002 1292 1341 1160 1155 1158 1192 1208 1245 1275 1546 1549 1277 1279 1571 1638 1427 1440 1652 1615 1409 1528 1853 1686 1728 1741 1757 1776 2054 2065 2080 2082 2096 2125 2150 1938 2000 2317 2342 2324 2336 2327 2036 2031 2016 1964 2169 1975 2309 2352 2354 2394 2424 2179 2421 2397 2404 2401 2394 2376 2376 2372 2352 2342 2360 2333 2305 2016 1982 1955 2158 2090 1783 1758 1712 1910 1863 1839 1806 1493 1427 1616 1551 1237 1176 1386 1358 1286 1020 966 1126 763 712 666 858 817 492 403 529 197 343 315 278 266 -56 123 0 -337 -327 -143 -205 -515 -568 -593 -609 -389 -430 -770 -856 -658 -683 -704 -705 -675 -660 -673 -722 -748 -1037 -1076 -1127 -1144 -904 -904 -930 -945 -951 -967 -991 -1014 -1008 -1304 -1306 -1305 -1322 -1377 -1386 -1390 -1340 -1013 -981 -996 -1319 -1315 -1316 -1309 -1287 -1016 -1293 -1325 -1356 -1161 -1211 -1202 -1167 -1175 -1184 -1154 -1360 -1315 -1323 -1370 -1159 -1156 -1374 -1332 -1288 -991 -973 -962 -981 -1281 -991 -959 -976 -996 -1007 -992 -994 -1007 -1288 -1312 -1327 -1298 -1303 -1295 -991 -969 -976 -1016 -1293 -1296 -1292 -1003 -989 -999 -975 -929 -910 -917 -934 -929 -942 -955 -1007 -1019 -972 -961 -984 -960 -898 -1107 -1103 -1106 -1125 -1123 -923 -924 -1115 -1075 -1097 -1122 -1136 -1148 -921 -921 -1141 -904 -1151 -1137 -1140 -900 -911 -1138 -1131 -1122 -1111 -1101 -1082 -1067 -1102 -1118 -1113 -1084 -1081 -1068 -1111 -1134 -1133 -1095 -1084 -1125 -919 -950 -984 -1022 -987 -930 -1131 -1124 -919 -934 -1131 -1112 -1109 -1108 -1103 -1118 -1108 -1083 -1070 -1058 -1032 -765 -740 -754 -1059 -1093 -1056 -755 -1044 -1095 -1100 -1077 -1030 -762 -734 -724 -758 -764 -1030 -1034 -766 -764 -1028 -762 -768 -754 -719 -714 -692 -677 -693 -705 -745 -737 -706 -720 -1030 -1116 -1118 -1089 -1057 -1028 -1029 -1039 -737 -701 -679 -728 -737 -711 -726 -719 -652 -803 -441 -399 -633 -599 -574 -562 -526 -203 -150 -374 -380 -370 -333 -339 -312 -262 -259 -295 -344 -365 -372 -140 -380 -275 73 -80 276 383 196 236 517 533 576 610 582 571 536 213 146 379 162 155 327 -7 -99 83 -261 -322 -366 -143 -196 -247 -513 -603 -640 -387 -598 -598 -620 -623 -622 -412 -771 -863 -871 -885 -674 -722 -746 -738 -717 -699 -731 -746 -748 -733 -695 -679 -874 -850 -845 -790 -483 -503 -786 -835 -881 -829 -509 -776 -841 -883 -646 -675 -725 -724 -675 -644 -872 -813 -784 -796 -808 -846 -885 -667 -671 -652 -894 -653 -695 -737 -750 -707 -669 -691 -690 -723 -709 -689 -677 -661 -685 -704 -700 -675 -893 -643 -665 -696 -690 -651 -861 -868 -896 -648 -889 -886 -894 -880 -827 -823 -851 -872 -872 -864 -848 -846 -819 -509 -442 -588 -531 -244 -173 26 -5 192 614 781 719 901 1374 1638 1665 1988 2680 3197 3663 3951 3817 4154 4135 3786 3887 3656 3049 2528 2161 1279 703 205 -275 -477 -970 -1881 -2455 -3419 -3843 -4150 -4387 -4285 -4620 -4318 -4459 -4054 -4028 -4032 -3997 -4124 -3850 -3249 -3171 -2843 -2279 -1947 -1862 -1616 -1165 -1021 -937 -1104 -1045 -712 -657 -849 -466 -575 -190 -318 35 91 125 84 58 54 42 -284 -345 -157 -216 -531 -568 -561 -242 -200 -144 -338 -287 76 112 88 26 -269 -275 -290 -294 -347 -138 -380 -359 -293 33 30 16 59 51 29 -270 -280 17 73 -88 -28 -1 -9 -31 -86 -105 -109 -104 -100 -58 -54 -99 110 112 126 -73 -52 -19 282 310 289 261 295 289 259 -18 -27 -30 261 291 319 344 371 148 171 176 203 221 219 214 199 208 210 213 228 219 213 518 561 592 633 397 634 619 606 392 487 816 800 494 436 448 496 804 823 867 640 642 644 655 892 655 686 746 752 1029 1050 1053 1060 1087 1124 1129 1128 920 926 970 1280 1006 999 1355 1161 1180 1178 1165 1154 1166 1243 1570 1614 1622 1443 1465 1469 1454 1655 1432 1495 1515 1515 1806 1849 1886 1679 1690 1696 1679 1696 1733 1747 1791 2076 2097 2085 2063 2083 2093 2110 2140 1957 1982 1983 1963 1931 1936 1978 1994 2008 2041 2320 2312 2043 2033 2042 2333 2315 2026 2029 2370 2428 2412 2355 2329 2337 2363 2369 2360 2326 2044 2023 1956 2161 2124 2126 2121 2091 2051 1729 1676 1896 1887 1846 1462 1594 1262 1185 1357 1017 995 983 930 898 1124 1071 765 714 688 850 451 397 627 583 563 232 129 321 -11 -88 -93 115 24 -262 -259 -289 -367 -251 -589 -629 -447 -469 -440 -455 -503 -798 -782 -808 -872 -687 -695 -685 -718 -737 -732 -1029 -1045 -1056 -1089 -1126 -1141 -1115 -1052 -1080 -1109 -1122 -1104 -934 -986 -953 -915 -949 -985 -969 -920 -923 -981 -1013 -1024 -1024 -1325 -1346 -1330 -1322 -1301 -1295 -1293 -1304 -1349 -1355 -1296 -1291 -1380 -1223 -1219 -1407 -1345 -1315 -1282 -986 -915 -1138 -1127 -912 -988 -979 -957 -933 -960 -945 -907 -1128 -1110 -1104 -1113 -1141 -947 -1003 -992 -972 -934 -1151 -1127 -1080 -1108 -1143 -929 -952 -949 -1116 -748 -723 -761 -1072 -1056 -762 -1031 -767 -730 -724 -710 -700 -747 -691 -865 -842 -853 -813 -817 -806 -780 -807 -859 -854 -801 -782 -794 -820 -803 -793 -794 -492 -441 -416 -464 -510 -801 -802 -801 -507 -473 -467 -482 -493 -500 -775 -792 -809 -491 -412 -391 -414 -446 -506 -770 -471 -458 -477 -449 -397 -604 -593 -598 -392 -434 -470 -439 -391 -621 -619 -627 -631 -433 -486 -507 -460 -452 -446 -444 -434 -414 -403 -395 -394 -437 -501 -495 -432 -626 -603 -640 -425 -459 -499 -512 -447 -387 -418 -428 -611 -605 -621 -633 -600 -385 -392 -411 -604 -550 -573 -538 -524 -225 -201 -211 -240 -232 -180 -156 -333 -278 34 23 27 76 99 112 123 -98 -82 -89 -76 -73 -79 -105 121 111 64 82 81 -108 -20 292 362 198 217 146 379 172 201 218 241 546 516 233 197 203 187 161 358 296 -21 -55 -107 57 22 -275 -310 -139 -163 -159 -354 -313 -336 -363 -159 -209 -529 -559 -534 -543 -603 -406 -466 -466 -466 -423 -419 -432 -466 -432 -397 -386 -413 -445 -443 -430 -427 -402 -611 -575 -603 -390 -420 -458 -463 -467 -484 -769 -776 -781 -795 -800 -822 -788 -477 -497 -779 -770 -485 -483 -502 -479 -470 -436 -407 -412 -437 -399 -637 -413 -427 -638 -627 -613 -639 -395 -408 -411 -629 -613 -589 -569 -592 -609 -388 -633 -624 -612 -602 -410 -449 -415 -637 -583 -551 -542 -555 -549 -586 -573 -583 -559 -551 -535 -231 -179 -325 56 -32 161 388 863 1077 1015 1197 1408 1665 2018 2681 3159 3646 3757 4216 4018 4049 3981 4124 3793 3554 3345 2524 2115 1398 511 294 -354 -781 -1347 -2068 -2501 -3033 -3625 -3872 -3769 -4166 -4210 -4107 -3961 -3900 -3771 -4101 -3775 -3856 -3273 -3159 -2551 -2212 -2156 -1874 -1416 -1553 -1199 -1343 -965 -1100 -760 -681 -841 -463 -577 -161 -265 -128 -38 270 267 266 264 -33 -102 64 -315 -184 -249 -549 -537 -210 -360 -275 38 75 122 -107 -71 -5 297 256 -54 -88 -90 -121 97 81 91 90 98 96 106 -128 -87 -36 287 307 294 293 322 321 307 303 277 -5 262 275 281 -2 257 262 321 327 320 316 331 369 142 161 206 249 563 547 542 255 212 194 203 179 164 195 217 229 245 557 577 578 562 577 595 628 627 618 614 619 620 397 471 782 502 490 480 503 840 841 829 801 795 809 801 793 808 879 687 687 672 687 727 731 729 1032 1077 1088 1092 1096 1078 1075 1088 1113 1148 938 953 962 959 969 962 984 1281 1020 997 1290 1377 1180 1184 1189 1243 1252 1245 1222 1246 1242 1232 1271 1583 1656 1431 1662 1414 1412 1659 1454 1523 1814 1816 1517 1798 1878 1664 1676 1682 1720 1790 2126 2157 2109 2085 2138 1925 1950 1933 1935 1950 1982 2006 2028 2028 1978 2174 1925 1992 2029 2324 2370 2363 2339 2322 2019 2007 1979 1976 1996 2004 1978 1988 1980 1955 1950 1943 1920 2168 2161 2142 2092 1791 1762 1711 1883 1820 1504 1451 1663 1595 1254 1167 1363 1335 1307 987 908 1087 750 680 881 788 458 392 569 536 230 145 370 368 307 -68 77 7 -310 -334 -375 -178 -527 -623 -440 -434 -424 -484 -807 -852 -666 -739 -762 -748 -741 -1028 -1081 -1134 -1137 -1133 -907 -954 -956 -969 -965 -985 -1016 -1011 -1288 -1335 -1374 -1407 -1160 -1406 -1169 -1202 -1215 -1181 -1168 -1154 -1157 -1184 -1175 -1170 -1407 -1178 -1192 -1182 -1180 -1167 -1166 -1175 -1181 -1172 -1203 -1258 -1240 -1237 -1243 -1246 -1227 -1208 -1221 -1244 -1258 -1221 -1190 -1218 -1248 -1224 -1224 -1193 -1161 -1402 -1386 -1397 -1385 -1383 -1381 -1164 -1207 -1188 -1159 -1367 -1330 -1290 -1281 -1299 -1311 -1324 -1332 -1344 -1340 -1320 -1316 -1306 -1288 -976 -1133 -1126 -917 -946 -946 -934 -926 -926 -941 -924 -904 -1146 -898 -931 -959 -974 -986 -987 -959 -910 -1127 -1108 -1106 -1110 -1120 -906 -943 -960 -975 -993 -980 -930 -1124 -1091 -1084 -1103 -1135 -1132 -1133 -1136 -1125 -901 -931 -923 -1148 -1145 -912 -926 -898 -1082 -1039 -1029 -1068 -1103 -1118 -1122 -1101 -1112 -1099 -1039 -744 -1026 -1052 -1026 -766 -737 -722 -746 -1038 -1058 -1048 -757 -733 -720 -693 -688 -703 -710 -720 -741 -1029 -1048 -1041 -1044 -1055 -1040 -739 -690 -651 -891 -890 -659 -685 -704 -692 -651 -878 -868 -856 -852 -842 -825 -806 -809 -847 -646 -878 -855 -879 -642 -641 -860 -834 -838 -822 -783 -503 -774 -508 -464 -426 -620 -587 -553 -525 -247 -222 -185 -147 -350 -295 -292 -289 -261 2 -277 -359 -149 -187 -195 -141 -345 -302 35 -122 -51 -7 315 378 381 365 377 146 157 139 358 341 361 382 383 143 135 342 278 -74 92 38 8 -298 -357 -157 -194 -234 -254 -515 -254 -524 -562 -593 -637 -430 -473 -770 -801 -834 -869 -892 -679 -727 -747 -737 -702 -663 -885 -845 -809 -791 -776 -505 -468 -477 -795 -829 -776 -493 -495 -504 -776 -817 -864 -884 -894 -884 -856 -852 -854 -893 -686 -690 -663 -874 -869 -880 -884 -881 -851 -823 -788 -787 -827 -877 -870 -854 -851 -816 -807 -831 -808 -790 -792 -803 -812 -510 -449 -408 -411 -428 -436 -488 -810 -850 -854 -815 -511 -486 -475 -456 -462 -452 -466 -464 -468 -486 -461 -391 -563 -238 -158 -340 18 -97 338 534 481 700 902 1359 1615 1908 2000 2639 3080 3280 3898 3821 4124 4136 4122 3767 3567 3222 2756 2234 1895 1007 400 -95 -253 -671 -1167 -2163 -2933 -3425 -3712 -3715 -4154 -4079 -4370 -4017 -4131 -3740 -3790 -3833 -3746 -3510 -3230 -3182 -2874 -2254 -1940 -1906 -1425 -1254 -1326 -933 -1083 -752 -880 -809 -443 -588 -196 -277 107 -21 302 345 277 -43 -102 95 -274 -150 -197 -210 -191 -169 -152 -138 -370 -357 -342 -338 -307 7 112 -82 -48 -13 -1 -9 -40 -71 -97 -128 119 113 119 -125 123 100 125 114 -96 -33 -9 -31 -1 305 307 284 256 -62 -106 -94 -61 -34 -9 -6 263 275 263 -7 -5 263 -39 -71 -72 -34 271 320 322 314 302 285 257 258 290 310 329 320 324 358 371 374 132 149 146 151 155 163 191 223 519 531 526 518 523 536 545 552 596 596 596 603 613 607 619 397 412 470 448 472 453 455 466 479 441 390 386 430 452 483 791 841 882 664 705 718 740 708 701 731 1056 1061 1086 1101 899 901 916 929 954 943 965 1006 1315 1297 1313 1008 1023 1293 1335 1345 1171 1196 1242 1269 1570 1569 1603 1617 1654 1409 1448 1471 1533 1802 1524 1798 1804 1802 1523 1888 1720 1781 2049 2053 1777 1763 1757 1775 2071 2074 2054 2087 2090 2114 2127 2128 2137 2130 2137 2135 2142 1921 1944 1927 2121 1786 1722 1704 1740 1775 2065 1791 1766 1738 1706 1688 1910 1871 1808 1491 1440 1653 1615 1587 1557 1255 1191 1385 1306 986 939 904 1086 737 657 865 808 467 397 583 515 214 152 358 310 -11 -88 68 -283 -357 -167 -247 -540 -563 -584 -613 -411 -500 -816 -858 -675 -764 -1115 -898 -913 -914 -942 -951 -958 -984 -1016 -1300 -1331 -1354 -1400 -1175 -1208 -1244 -1539 -1280 -1266 -1267 -1277 -1569 -1585 -1574 -1557 -1556 -1568 -1561 -1551 -1538 -1549 -1571 -1604 -1619 -1615 -1573 -1272 -1230 -1219 -1221 -1227 -1227 -1226 -1223 -1234 -1254 -1278 -1577 -1593 -1579 -1538 -1252 -1236 -1210 -1184 -1189 -1222 -1237 -1238 -1237 -1216 -1191 -1168 -1189 -1211 -1207 -1200 -1199 -1188 -1163 -1166 -1177 -1406 -1370 -1361 -1379 -1400 -1391 -1378 -1358 -1364 -1381 -1372 -1352 -1335 -1306 -1288 -1014 -1020 -1010 -995 -1010 -1001 -979 -987 -1011 -1284 -1284 -995 -932 -899 -903 -899 -899 -910 -910 -913 -957 -974 -952 -900 -905 -929 -924 -929 -920 -909 -908 -1143 -902 -938 -942 -952 -975 -1002 -1288 -1293 -1281 -996 -993 -1000 -1011 -1006 -986 -962 -946 -938 -956 -946 -915 -901 -1143 -1152 -1143 -1137 -1125 -1117 -1105 -1132 -1148 -1139 -1128 -1132 -1142 -1144 -1144 -897 -903 -1113 -1098 -1091 -1076 -1060 -1109 -1126 -1115 -1123 -1131 -1133 -1129 -1113 -1115 -1140 -917 -1151 -1077 -1048 -1056 -1068 -1102 -1120 -1095 -1076 -1079 -1055 -1064 -1076 -1106 -1120 -1137 -1138 -1117 -1097 -1058 -1027 -1056 -1091 -1110 -1128 -1141 -1123 -1086 -1060 -1059 -1051 -766 -745 -726 -718 -701 -676 -702 -721 -695 -652 -646 -871 -860 -837 -804 -800 -509 -449 -404 -626 -593 -541 -243 -184 -138 -356 -335 -325 -296 -280 -294 -332 -132 -176 -183 -165 -372 -316 32 91 -104 -35 287 317 341 378 147 150 150 361 329 288 -3 -13 -50 -89 -114 97 6 -346 -158 -226 -232 -516 -571 -638 -453 -483 -481 -485 -473 -473 -474 -770 -829 -873 -893 -644 -681 -727 -1031 -1040 -1050 -1067 -1077 -1126 -898 -943 -906 -1055 -747 -713 -720 -755 -749 -762 -741 -727 -747 -742 -1027 -1038 -1047 -1072 -1091 -1102 -1143 -904 -913 -928 -1148 -1116 -1051 -752 -739 -709 -676 -707 -710 -738 -1038 -1038 -1045 -1051 -1025 -743 -701 -673 -678 -672 -649 -645 -645 -657 -685 -712 -707 -686 -667 -652 -670 -693 -712 -726 -733 -712 -691 -892 -866 -847 -865 -649 -890 -854 -817 -811 -800 -801 -504 -491 -469 -582 -140 32 -45 132 557 466 657 1113 1313 1574 1881 1982 2592 2766 3251 3857 3744 3722 3927 3892 3534 3310 3158 2626 1744 1373 790 -24 -251 -699 -1407 -1697 -2443 -3392 -3547 -4107 -4395 -4349 -4506 -4736 -4350 -4442 -4377 -4395 -4359 -4216 -3963 -3684 -3391 -3079 -2481 -2429 -2139 -1858 -1587 -1355 -961 -901 -1113 -1082 -1040 -701 -823 -392 -232 -362 -259 87 -107 -107 101 14 -144 -235 -539 -609 -415 -453 -464 -452 -400 -563 -239 -176 -378 -339 -269 44 78 75 66 13 -259 -276 -289 -284 -279 -272 -260 -267 -288 -279 -257 42 67 81 -107 -55 -44 258 263 261 -9 -26 -40 -100 -119 -88 -53 260 262 -4 -37 -28 -48 -25 -12 -4 257 -4 277 296 272 -3 -11 262 284 301 290 314 326 326 366 378 359 369 150 199 217 240 220 218 230 246 533 555 563 574 567 574 578 588 590 600 611 626 388 421 443 452 423 392 442 784 823 826 818 804 829 871 857 844 859 838 828 840 881 672 703 711 739 1034 1055 1090 1135 921 943 950 963 985 1022 1294 1306 1320 1328 1329 1354 1391 1193 1236 1244 1242 1241 1250 1539 1568 1605 1609 1617 1640 1658 1453 1521 1814 1836 1857 1895 1691 1707 1721 1766 1782 1777 1746 1784 2088 2124 2134 2158 1944 1945 1965 1998 1993 1957 1935 1988 2329 2389 2408 2391 2384 2368 2375 2388 2400 2184 2431 2414 2420 2393 2360 2350 2332 2046 2040 2047 2026 2003 1986 1949 2173 2133 2086 1787 1771 1726 1675 1887 1850 1818 1517 1463 1420 1622 1547 1197 1358 1007 918 1137 1097 1026 683 862 822 769 427 581 196 362 356 334 273 -88 80 4 -300 -324 -131 -211 -554 -401 -458 -466 -480 -505 -803 -874 -692 -756 -1036 -1050 -1068 -1087 -1121 -1143 -924 -961 -1017 -1291 -1297 -1311 -1320 -1318 -1319 -1327 -1359 -1374 -1403 -1173 -1170 -1406 -1388 -1392 -1407 -1376 -1358 -1392 -1207 -1220 -1186 -1171 -1164 -1408 -1397 -1154 -1160 -1176 -1220 -1259 -1270 -1254 -1224 -1208 -1227 -1205 -1194 -1182 -1404 -1366 -1344 -1375 -1155 -1154 -1153 -1403 -1399 -1164 -1169 -1402 -1399 -1373 -1357 -1370 -1369 -1356 -1330 -1335 -1356 -1357 -1371 -1370 -1358 -1308 -1283 -1282 -1295 -1297 -1012 -997 -980 -996 -1009 -1283 -1019 -1014 -1001 -1001 -1001 -1283 -1283 -1318 -1365 -1302 -963 -931 -942 -971 -981 -975 -968 -971 -968 -969 -1000 -1015 -994 -970 -957 -964 -975 -966 -954 -948 -951 -950 -951 -957 -951 -949 -932 -909 -906 -912 -923 -897 -1105 -1058 -1047 -1065 -1083 -1047 -1040 -768 -753 -1051 -1089 -1114 -1097 -1051 -750 -744 -1034 -1043 -1070 -1082 -1085 -1083 -1047 -756 -754 -1038 -1040 -761 -730 -728 -748 -767 -1038 -759 -736 -720 -711 -722 -732 -713 -681 -674 -683 -686 -708 -720 -737 -763 -1052 -1083 -1043 -763 -758 -767 -1052 -1070 -1079 -1073 -1093 -1088 -1057 -1037 -1032 -1026 -1029 -1037 -767 -748 -736 -713 -701 -682 -670 -663 -664 -677 -689 -662 -883 -846 -793 -491 -496 -774 -496 -485 -466 -429 -385 -595 -578 -557 -251 -190 -149 -362 -303 13 101 -103 -120 -118 -107 -98 -109 100 38 0 11 24 77 -67 316 160 240 535 538 542 583 420 478 456 420 634 612 602 589 582 558 240 174 342 -5 -107 72 -269 -320 -366 -154 -173 -232 -559 -559 -538 -518 -520 -538 -610 -405 -440 -501 -828 -894 -672 -675 -646 -643 -655 -658 -664 -675 -652 -895 -641 -888 -849 -804 -773 -491 -785 -832 -827 -775 -481 -506 -810 -852 -884 -671 -664 -684 -739 -1052 -1076 -1059 -1036 -728 -659 -869 -891 -676 -686 -681 -689 -709 -729 -750 -760 -762 -739 -709 -685 -670 -676 -693 -702 -688 -688 -697 -718 -742 -762 -1045 -767 -735 -714 -697 -702 -719 -730 -735 -734 -761 -1040 -747 -700 -687 -645 -871 -655 -658 -870 -848 -867 -892 -855 -491 -441 -625 -528 -370 117 360 587 785 710 1115 1365 1436 1767 2399 2863 3368 3491 3905 3959 3725 3738 3950 3528 3201 2736 2397 1457 1047 158 -363 -769 -942 -1432 -2369 -3135 -3627 -3883 -4143 -4367 -4334 -4700 -4670 -4291 -4456 -4458 -4404 -3985 -3721 -3670 -3331 -2740 -2647 -2375 -2134 -1667 -1663 -1245 -1351 -1003 -943 -1120 -1040 -880 -447 -532 -167 -312 38 84 -119 -110 126 68 -259 -313 -364 -174 -219 -235 -530 -580 -597 -556 -202 -353 -301 21 84 106 98 90 84 68 42 4 -292 -289 0 13 29 49 64 76 102 -111 -77 -51 -43 261 316 308 305 288 284 -3 260 269 -20 -40 -76 -94 -65 283 364 152 146 146 138 365 341 361 152 182 192 186 182 226 252 545 536 519 535 555 546 519 249 250 254 236 247 515 517 530 602 408 394 592 565 576 616 629 393 418 452 477 499 507 768 801 825 838 859 854 846 887 675 698 706 700 734 761 1033 764 1029 1037 1052 1073 1102 1088 1105 899 939 937 975 978 969 949 950 973 1287 1329 1352 1374 1403 1179 1189 1212 1248 1272 1555 1587 1609 1633 1412 1452 1495 1500 1474 1500 1807 1878 1912 1695 1705 1714 1679 1918 1673 1698 1745 2053 2092 2137 2152 2175 1967 2025 2318 2026 2004 1991 1987 2012 2345 2384 2371 2412 2191 2185 2399 2392 2417 2428 2200 2218 2189 2178 2387 2366 2392 2401 2359 2328 2339 2360 2363 2402 2407 2333 1964 2138 2089 2092 2095 2122 2118 2080 1743 1704 1898 1801 1477 1522 1529 1463 1637 1593 1276 1224 1405 1327 997 938 1124 1069 764 745 645 489 587 541 525 545 562 535 162 308 -24 -110 56 -287 -338 -376 -129 -165 -190 -513 -622 -462 -793 -847 -874 -896 -651 -666 -693 -768 -1077 -1140 -905 -1148 -1131 -1130 -943 -995 -987 -973 -987 -1021 -1328 -1388 -1187 -1156 -1361 -1342 -1379 -1403 -1396 -1394 -1374 -1304 -1291 -1336 -1359 -1379 -1362 -1385 -1156 -1182 -1402 -1374 -1374 -1348 -1306 -1315 -1329 -1358 -1397 -1175 -1221 -1261 -1213 -1396 -1393 -1407 -1158 -1173 -1153 -1349 -1291 -1011 -1289 -1283 -1295 -1291 -1304 -1317 -1309 -1342 -1363 -1336 -1296 -995 -955 -970 -1024 -1304 -1339 -1360 -1368 -1351 -1331 -1007 -947 -917 -926 -955 -977 -1018 -1305 -1283 -1015 -1013 -1281 -1024 -984 -994 -1009 -984 -1021 -1292 -1293 -1012 -1023 -1006 -978 -935 -911 -932 -956 -993 -993 -978 -971 -988 -942 -1114 -1087 -1091 -1116 -1127 -1126 -1136 -1152 -934 -951 -936 -934 -934 -1121 -1038 -742 -742 -1062 -906 -914 -910 -1137 -1071 -760 -745 -748 -701 -703 -714 -726 -716 -697 -702 -702 -641 -862 -871 -661 -710 -702 -700 -716 -726 -728 -742 -762 -729 -670 -887 -893 -893 -663 -709 -730 -725 -712 -685 -672 -674 -862 -794 -795 -825 -853 -871 -643 -669 -643 -852 -838 -845 -865 -876 -874 -650 -701 -742 -738 -708 -656 -874 -878 -879 -860 -832 -818 -502 -435 -396 -614 -580 -534 -205 -129 -355 -336 -292 -268 -266 2 19 21 10 5 26 -281 -345 -141 -160 -170 -170 -358 25 84 -108 -18 300 329 382 165 209 542 612 626 594 533 218 173 164 194 193 333 282 -20 -97 119 79 47 -274 -358 -204 -204 -157 -176 -245 -590 -596 -550 -550 -568 -602 -419 -506 -817 -850 -883 -649 -684 -722 -705 -879 -828 -859 -862 -876 -865 -771 -483 -771 -807 -802 -795 -777 -496 -447 -419 -481 -799 -850 -662 -711 -696 -887 -849 -896 -694 -736 -1025 -759 -687 -889 -875 -819 -781 -825 -858 -644 -670 -678 -685 -679 -699 -888 -815 -777 -778 -777 -808 -789 -814 -796 -490 -453 -489 -512 -783 -799 -791 -494 -437 -409 -413 -432 -432 -461 -453 -417 -406 -437 -441 -436 -406 -613 -580 -624 -413 -435 -632 -527 -188 -321 69 -10 154 590 778 716 1143 1380 1649 1740 2182 2720 3234 3899 4139 4206 4182 4108 3801 3904 3617 3010 2816 1996 1616 739 172 -276 -436 -942 -1693 -2488 -3374 -3472 -3734 -4193 -4356 -4378 -4009 -4156 -3838 -4123 -4133 -4115 -3740 -3712 -3353 -2710 -2566 -1998 -1737 -1795 -1409 -1224 -1327 -922 -1089 -746 -687 -671 -848 -461 -559 -144 -289 97 -51 -11 -58 119 6 -371 -191 -247 -530 -567 -577 -556 -528 -245 -239 -180 -375 -360 -373 -289 125 266 291 257 -75 -121 127 108 86 74 36 34 87 -92 -75 -92 126 -123 124 -114 -58 -15 -20 -34 -36 -56 -108 112 114 -106 -56 -25 -14 -26 268 333 361 306 264 265 318 350 327 292 281 -12 262 361 212 208 140 371 345 319 299 336 379 381 134 187 225 254 528 254 248 518 568 545 207 235 534 588 401 638 630 627 627 411 773 825 805 773 451 447 505 870 692 739 723 687 648 886 892 669 706 757 1064 1085 1131 930 970 1297 1009 982 958 952 979 973 948 981 1016 1325 1379 1160 1176 1198 1181 1194 1218 1254 1247 1251 1256 1539 1645 1461 1478 1492 1847 1850 1817 1528 1797 1508 1511 1844 1861 1912 1726 1716 1687 1902 1669 1728 1790 1789 1781 1777 2082 2134 2140 2165 1960 1986 1983 1973 1941 1927 1924 2029 2359 2376 2407 2395 2382 2378 2364 2374 2410 2423 2417 2409 2378 2350 2045 2046 2351 2344 2005 1994 2319 2339 1982 2175 1922 1928 2145 2095 2071 1755 1674 1879 1824 1493 1487 1496 1434 1599 1244 1163 1330 1010 959 903 1103 1052 1032 715 854 777 496 451 597 513 245 233 217 328 -85 102 86 77 39 -284 -341 -134 -211 -254 -553 -596 -404 -443 -428 -420 -430 -783 -649 -716 -759 -763 -1029 -1034 -1025 -1053 -1061 -1082 -1144 -1149 -1142 -1137 -903 -943 -980 -964 -965 -1015 -1018 -1016 -988 -940 -1134 -1143 -904 -927 -1134 -1123 -1139 -1091 -1047 -1077 -1085 -1107 -1121 -1128 -1152 -931 -900 -930 -1147 -1125 -1079 -745 -731 -763 -1064 -1068 -1063 -1082 -1054 -1046 -1039 -760 -1064 -760 -758 -746 -728 -721 -673 -675 -670 -682 -765 -1034 -762 -732 -711 -743 -691 -651 -673 -684 -695 -672 -662 -658 -683 -673 -694 -717 -702 -712 -704 -681 -661 -664 -657 -870 -824 -820 -821 -822 -817 -808 -798 -508 -481 -507 -511 -774 -471 -420 -422 -439 -476 -793 -809 -773 -792 -835 -871 -853 -816 -783 -501 -474 -499 -798 -804 -793 -791 -789 -796 -796 -511 -465 -465 -501 -508 -508 -512 -494 -476 -478 -476 -506 -476 -432 -438 -432 -452 -463 -461 -460 -467 -504 -476 -426 -402 -428 -444 -448 -465 -508 -800 -778 -487 -487 -451 -394 -627 -631 -407 -420 -425 -458 -477 -463 -435 -414 -404 -387 -609 -609 -410 -424 -393 -623 -616 -591 -588 -597 -606 -624 -606 -600 -586 -570 -516 -196 -161 -376 -329 -321 -333 -348 -362 -284 26 77 110 -102 -94 -95 -39 270 -13 -78 -124 94 57 19 76 -98 -14 332 164 216 212 230 523 526 562 617 430 441 590 222 158 378 319 297 343 320 258 -95 91 15 -286 -282 -319 -331 -141 -197 -204 -189 -158 -181 -198 -524 -599 -625 -617 -583 -606 -405 -475 -803 -842 -859 -856 -823 -784 -789 -814 -806 -510 -451 -396 -395 -398 -428 -437 -415 -414 -415 -466 -494 -435 -417 -472 -470 -456 -439 -466 -476 -445 -413 -388 -401 -416 -421 -435 -441 -477 -492 -487 -772 -799 -784 -776 -776 -784 -784 -490 -440 -407 -404 -401 -409 -396 -626 -392 -392 -386 -393 -420 -405 -389 -614 -616 -629 -631 -408 -635 -617 -402 -450 -440 -637 -622 -622 -625 -599 -526 -159 -351 -299 13 -122 301 232 401 845 759 960 1390 1619 1899 1978 2625 3125 3649 3749 4187 3974 4017 3977 4189 3793 3495 3359 2552 2130 1212 888 188 87 -559 -1084 -1844 -2629 -3139 -3418 -3662 -3570 -3737 -3796 -3953 -3537 -3471 -3865 -3722 -3939 -3479 -3428 -3124 -2547 -2219 -1953 -1731 -1534 -1633 -1255 -1403 -1292 -926 -1130 -1086 -735 -826 -410 -526 -364 51 -96 -62 -57 -71 117 11 -327 -368 -155 -220 -531 -573 -570 -526 -232 -174 -379 -305 31 83 102 -113 -78 -75 -88 -87 -79 -88 -127 101 72 43 52 57 63 103 -100 -79 -43 -9 -8 -5 -4 293 316 309 304 296 266 279 311 333 318 260 -20 270 314 310 297 293 303 318 335 368 365 340 326 345 133 141 367 362 136 147 149 153 170 172 209 255 548 585 626 414 437 441 406 636 619 385 428 467 505 495 490 498 797 817 831 842 805 798 818 839 810 797 804 862 645 674 697 731 744 1031 761 763 1049 1078 1103 1101 1105 1129 1122 1146 1148 913 945 964 966 955 981 962 994 992 1016 1324 1183 1210 1208 1250 1540 1576 1608 1653 1411 1424 1443 1488 1534 1815 1804 1809 1806 1829 1883 1678 1733 1747 1741 1695 1702 1773 2105 2150 1922 2169 1928 1952 1945 1944 1988 2027 2021 2046 2374 2411 2417 2424 2179 2198 2407 2393 2386 2403 2177 2177 2431 2184 2185 2424 2423 2423 2430 2423 2405 2375 2347 2331 2326 2321 2044 2013 1983 1945 2175 2142 2146 2161 2106 1780 1708 1904 1855 1802 1485 1449 1658 1587 1244 1166 1383 1293 961 1150 1079 1042 744 691 860 502 445 636 595 546 234 201 136 337 -20 -120 34 -332 -159 -239 -553 -622 -404 -449 -478 -500 -825 -865 -678 -691 -743 -1055 -1082 -1132 -1131 -1125 -1121 -1135 -922 -903 -953 -983 -1018 -1291 -1291 -1324 -1308 -1294 -1323 -1364 -1379 -1402 -1392 -1377 -1391 -1378 -1397 -1161 -1165 -1394 -1378 -1153 -1182 -1171 -1386 -1393 -1395 -1396 -1359 -1373 -1376 -1376 -1344 -1319 -1331 -1323 -1315 -1290 -1012 -1001 -991 -1009 -1015 -1281 -1293 -1305 -1322 -1303 -1311 -1354 -1348 -1304 -1023 -1282 -1284 -1020 -1299 -1312 -1318 -1303 -1290 -1290 -1287 -1005 -992 -999 -988 -977 -996 -1023 -1024 -1020 -1005 -1009 -976 -909 -1135 -1124 -1107 -1090 -1095 -1102 -1121 -1125 -1127 -1130 -1115 -1098 -1056 -1053 -1065 -1056 -1046 -1040 -761 -735 -729 -728 -714 -695 -682 -699 -708 -720 -736 -736 -725 -680 -650 -649 -655 -659 -887 -871 -881 -671 -756 -1030 -705 -872 -846 -856 -884 -893 -652 -655 -641 -874 -861 -892 -883 -863 -859 -877 -890 -896 -661 -678 -671 -672 -660 -674 -671 -641 -891 -642 -891 -891 -882 -879 -878 -860 -849 -867 -853 -810 -790 -839 -647 -652 -651 -658 -655 -664 -663 -891 -840 -820 -798 -797 -800 -800 -809 -806 -816 -811 -801 -797 -493 -455 -449 -485 -790 -823 -827 -825 -830 -800 -785 -802 -801 -769 -448 -424 -405 -592 -519 -239 -226 -194 -156 -361 -311 -285 4 24 94 -109 -83 -51 -4 278 294 -31 -108 83 75 121 -70 278 365 179 246 580 395 415 428 437 451 450 455 452 416 625 594 579 542 234 160 131 131 333 -9 -81 108 40 -272 -319 -359 -367 -353 -357 -380 -133 -142 -182 -237 -571 -398 -461 -498 -780 -809 -826 -818 -809 -804 -789 -783 -812 -785 -488 -464 -449 -422 -401 -410 -422 -444 -467 -430 -618 -560 -596 -636 -428 -474 -512 -797 -832 -806 -507 -504 -506 -498 -477 -449 -444 -459 -468 -497 -503 -495 -507 -796 -834 -828 -795 -771 -504 -511 -503 -781 -828 -864 -808 -469 -403 -611 -620 -412 -469 -772 -509 -497 -484 -475 -504 -807 -818 -797 -789 -785 -795 -502 -463 -456 -414 -636 -561 -513 -236 -185 -351 26 -68 363 581 778 738 964 1237 1806 2126 2241 2927 3414 3558 3760 3805 3796 3800 3788 3961 3704 3024 2495 2140 1246 849 288 -139 -792 -1283 -1666 -2443 -3353 -3700 -3947 -4132 -4353 -4295 -4319 -4456 -4002 -4223 -3972 -4155 -3715 -3673 -3402 -3097 -2530 -2246 -1965 -1697 -1450 -1243 -1303 -915 -1109 -1070 -1030 -718 -856 -449 -546 -149 -313 -264 87 -106 125 44 -287 -376 -215 -560 -596 -393 -459 -461 -404 -588 -243 -169 -365 -292 -271 -279 10 51 73 91 76 76 61 67 60 73 53 34 16 43 73 113 -122 -119 -65 -29 -11 257 -11 -8 264 293 298 303 -13 -29 -36 -10 303 361 358 349 319 314 329 331 336 334 320 309 322 319 312 302 296 315 362 142 157 152 159 175 198 183 171 169 185 208 232 216 223 222 231 247 547 579 598 628 612 570 532 530 564 386 438 476 786 838 875 642 889 883 651 879 886 687 703 707 700 688 711 697 686 720 745 730 716 706 730 1043 1117 1151 917 950 1004 1314 1314 1292 1310 1350 1363 1389 1158 1191 1223 1252 1558 1616 1660 1420 1414 1413 1432 1448 1472 1481 1522 1795 1506 1527 1821 1816 1908 1721 1776 1783 2095 2118 2164 1940 1967 1985 2013 2029 2015 2325 2348 2374 2401 2198 2223 2233 2253 2286 2577 2618 2640 2599 2581 2574 2602 2612 2626 2658 2644 2643 2657 2669 2664 2667 2444 2658 2638 2597 2573 2296 2258 2248 2225 2177 2373 2344 2036 1999 1988 1965 1958 2165 2125 2058 1714 1876 1806 1427 1586 1536 1237 1196 1193 1168 1365 1310 953 1119 1052 725 876 801 470 417 628 568 247 161 340 267 -51 -101 110 55 3 -288 -317 -384 -225 -589 -451 -794 -791 -812 -816 -803 -802 -802 -842 -651 -660 -670 -694 -724 -750 -767 -1058 -1107 -1137 -1118 -1105 -1105 -1115 -1134 -1150 -903 -925 -921 -929 -952 -964 -984 -979 -1001 -1007 -984 -978 -996 -1005 -997 -970 -959 -961 -935 -918 -908 -926 -965 -1009 -1298 -1291 -1021 -1012 -1021 -1008 -972 -953 -941 -930 -955 -963 -989 -975 -947 -913 -1151 -915 -914 -899 -901 -1147 -908 -900 -1146 -1149 -1122 -1127 -1119 -1090 -1095 -1089 -1117 -1132 -1116 -1103 -1078 -1068 -1060 -1061 -1050 -1044 -762 -741 -729 -714 -700 -694 -713 -707 -705 -711 -700 -709 -685 -676 -686 -679 -651 -885 -871 -867 -842 -813 -842 -870 -645 -648 -892 -863 -824 -832 -883 -655 -876 -837 -815 -835 -846 -891 -641 -643 -894 -647 -651 -644 -889 -667 -713 -654 -839 -823 -842 -872 -652 -687 -713 -703 -686 -668 -671 -884 -843 -805 -796 -803 -831 -860 -894 -658 -648 -864 -855 -841 -802 -777 -791 -836 -887 -666 -656 -881 -833 -791 -795 -791 -510 -512 -782 -810 -819 -827 -815 -827 -834 -826 -830 -828 -852 -843 -837 -828 -826 -806 -807 -807 -842 -856 -868 -833 -824 -811 -811 -769 -487 -479 -472 -441 -398 -613 -576 -549 -513 -227 -213 -198 -171 -135 -370 -346 -314 -283 1 54 -117 -79 -94 123 72 20 -279 12 60 127 -61 277 353 186 523 574 620 632 397 423 441 451 428 386 596 552 512 241 206 153 351 297 -17 -92 93 39 -278 -329 -129 -166 -202 -198 -219 -251 -520 -513 -556 -627 -390 -429 -458 -779 -860 -888 -886 -872 -642 -646 -891 -876 -859 -873 -883 -675 -662 -891 -857 -853 -827 -820 -822 -828 -850 -881 -659 -663 -686 -717 -765 -1035 -1042 -1043 -765 -749 -721 -697 -691 -690 -696 -724 -741 -747 -734 -712 -699 -727 -748 -754 -1028 -1025 -757 -747 -738 -732 -730 -732 -728 -704 -664 -878 -877 -894 -643 -641 -882 -883 -867 -881 -883 -886 -871 -868 -870 -895 -891 -858 -844 -818 -802 -781 -484 -414 -594 -563 -254 -165 -276 -111 318 528 493 696 897 1384 1428 1738 2344 2506 2981 3671 3919 3750 3768 3766 3758 3930 3465 3065 2532 2140 1220 845 289 -158 -841 -1326 -1699 -2440 -3036 -3644 -3927 -4180 -4429 -4616 -4629 -4290 -4394 -4364 -4377 -4053 -4141 -3886 -3586 -2980 -2869 -2252 -1935 -1897 -1658 -1203 -1300 -927 -1133 -1100 -1087 -706 -782 -594 -215 -352 38 106 106 99 67 19 -314 -136 -196 -217 -226 -235 -513 -536 -562 -534 -193 -130 -337 -299 15 51 74 100 -124 -113 92 36 -281 -329 -369 -384 -357 -328 -315 -284 -266 -266 -272 10 52 85 107 -127 -80 -72 -88 -93 -70 -49 -67 -34 274 287 285 322 381 175 184 156 158 177 174 146 365 362 148 186 210 201 194 161 381 373 150 196 225 212 166 162 204 252 227 203 208 236 513 546 596 636 388 629 626 623 384 394 419 460 486 491 488 491 499 780 778 773 772 789 839 873 886 877 881 851 838 878 691 719 738 737 1026 1031 1037 1046 1119 1137 1150 923 987 1020 1330 1344 1388 1382 1152 1407 1168 1180 1201 1262 1567 1601 1615 1607 1646 1416 1460 1480 1486 1464 1419 1415 1461 1804 1671 1754 1787 2050 1755 1754 1764 1791 2069 2110 2156 1928 1951 1955 1954 1958 1996 2021 2311 2324 2316 2348 2384 2178 2215 2203 2428 2390 2373 2374 2383 2396 2422 2202 2217 2241 2259 2232 2412 2333 2345 2368 2384 2345 2305 2005 2317 2367 2370 2345 2319 2044 2016 1920 2162 1922 2142 2104 1780 1747 1728 1720 1692 1897 1532 1419 1582 1253 1165 1340 1012 985 912 1101 1038 691 864 781 499 437 632 569 241 154 341 256 -68 95 5 -328 -374 -165 -189 -231 -547 -616 -431 -770 -815 -888 -695 -757 -1028 -1060 -1085 -1071 -1077 -1107 -910 -918 -933 -922 -940 -943 -972 -999 -1288 -1302 -1306 -1314 -1345 -1369 -1370 -1408 -1181 -1209 -1182 -1175 -1191 -1182 -1408 -1401 -1366 -1363 -1362 -1373 -1384 -1388 -1156 -1189 -1195 -1405 -1362 -1359 -1372 -1389 -1386 -1376 -1363 -1400 -1208 -1257 -1249 -1229 -1402 -1319 -1326 -1355 -1387 -1394 -1387 -1364 -1345 -1358 -1359 -1323 -1333 -1342 -1351 -1394 -1158 -1191 -1226 -1235 -1224 -1188 -1380 -1345 -1375 -1388 -1372 -1346 -1311 -1311 -1332 -1317 -1289 -1007 -996 -970 -929 -922 -968 -985 -1008 -1003 -1003 -993 -972 -974 -960 -953 -970 -1002 -1000 -974 -975 -970 -945 -943 -933 -921 -922 -926 -931 -916 -938 -949 -1150 -1131 -925 -944 -911 -903 -925 -902 -919 -1141 -1125 -928 -981 -969 -904 -1146 -1073 -765 -738 -724 -736 -748 -752 -1030 -1041 -1034 -1082 -1054 -1055 -765 -1081 -1110 -1108 -1064 -1036 -1032 -760 -740 -1050 -1085 -1088 -1096 -1051 -1038 -1034 -1070 -1087 -1082 -1077 -1055 -758 -1029 -1048 -1066 -1065 -760 -754 -1049 -1072 -1055 -756 -1055 -1053 -1029 -1048 -1080 -1126 -1147 -919 -1124 -1046 -752 -764 -1037 -1073 -1080 -1060 -1027 -762 -730 -675 -660 -699 -714 -659 -858 -808 -512 -777 -801 -788 -475 -639 -595 -561 -557 -248 -178 -135 -155 -197 -200 -181 -143 -131 -137 -179 -214 -179 -157 -360 -282 36 74 -116 -4 337 130 186 204 194 183 170 376 293 -42 -65 -38 -24 -47 -110 54 -294 -361 -141 -163 -255 -604 -446 -506 -805 -844 -839 -792 -492 -495 -831 -869 -660 -712 -1061 -1105 -920 -966 -988 -967 -999 -1293 -1293 -984 -970 -969 -975 -981 -992 -962 -927 -904 -908 -1120 -1125 -1111 -1096 -1107 -911 -936 -972 -1000 -1020 -1285 -1013 -1017 -1290 -1291 -1320 -1332 -1376 -1358 -1289 -1016 -1011 -1004 -1013 -1015 -1018 -1007 -1311 -1335 -1370 -1338 -1290 -986 -956 -945 -958 -974 -996 -957 -1146 -917 -954 -941 -933 -958 -978 -976 -959 -989 -1003 -1010 -1003 -953 -945 -935 -920 -942 -972 -980 -988 -995 -966 -910 -1112 -1057 -738 -684 -651 -831 -430 -519 -300 -90 347 534 774 701 898 1152 1496 2166 2616 3087 3284 3533 3846 3876 3900 3863 3488 3452 2739 2184 1793 1118 515 16 -418 -1050 -1267 -1967 -2715 -3258 -3886 -3981 -4259 -4728 -4583 -4517 -4618 -4433 -4418 -4423 -4086 -4131 -3853 -3310 -2979 -2914 -2625 -2333 -2083 -1879 -1631 -1198 -1318 -987 -922 -1125 -1054 -894 -493 -420 -561 -156 -317 -293 -282 -280 -331 -142 -192 -513 -527 -587 -398 -443 -475 -430 -564 -255 -238 -187 -369 -296 51 100 99 67 50 20 -259 -261 -261 -272 -324 -380 -153 -175 -179 -204 -178 -131 -291 78 98 52 -270 15 28 34 52 78 65 56 53 92 86 115 -111 -51 -59 -30 -6 260 -23 -24 -52 -10 296 332 342 356 363 353 305 262 -11 263 315 146 199 210 212 206 212 201 147 372 135 166 184 196 219 226 250 559 569 610 385 623 623 607 583 599 616 628 639 405 458 444 455 465 502 808 784 511 790 772 457 454 447 462 479 777 654 742 1040 1047 743 717 720 745 1067 1136 932 953 932 935 967 1296 1332 1379 1152 1178 1253 1221 1174 1189 1246 1547 1540 1259 1265 1536 1603 1411 1454 1484 1476 1441 1496 1792 1867 1665 1667 1682 1915 1880 1903 1685 1733 1754 2082 2133 2148 2170 1943 1934 1922 1922 2101 2092 2131 2148 2160 2141 2118 2119 2155 2163 2116 2093 2064 2084 2144 1950 1986 1955 2163 1925 1979 1964 2174 2133 2123 2137 2136 2092 2052 1706 1901 1887 1830 1833 1824 1518 1464 1425 1640 1589 1536 1234 1189 1169 1153 1301 913 1109 1049 687 879 860 808 502 451 622 523 183 134 332 284 -49 -116 100 70 65 31 -300 -364 -216 -518 -541 -616 -471 -851 -890 -670 -721 -762 -1032 -749 -754 -1065 -1109 -1147 -978 -1286 -1005 -996 -989 -992 -947 -925 -955 -993 -1295 -1312 -1345 -1382 -1192 -1172 -1165 -1159 -1398 -1378 -1156 -1202 -1220 -1228 -1187 -1178 -1201 -1182 -1397 -1370 -1346 -1331 -1350 -1330 -1313 -1300 -1320 -1157 -1207 -1193 -1376 -1295 -1006 -1283 -1305 -1302 -1019 -1022 -1020 -1297 -1284 -917 -898 -917 -921 -958 -1007 -1331 -1364 -1327 -1005 -923 -939 -969 -975 -974 -949 -991 -990 -999 -977 -952 -964 -950 -975 -951 -1126 -1095 -1084 -1084 -1145 -1149 -927 -959 -973 -996 -1021 -1288 -1015 -1011 -972 -925 -905 -906 -912 -1152 -902 -1150 -909 -918 -943 -944 -940 -951 -902 -1136 -1115 -1087 -1077 -1095 -1064 -751 -710 -713 -747 -741 -738 -720 -691 -707 -725 -738 -720 -686 -658 -656 -881 -865 -890 -646 -649 -891 -661 -692 -677 -643 -647 -879 -887 -652 -896 -659 -686 -682 -679 -893 -891 -667 -701 -745 -1034 -752 -712 -671 -668 -651 -645 -670 -650 -867 -858 -874 -889 -883 -882 -889 -886 -896 -895 -881 -860 -842 -848 -881 -649 -875 -865 -874 -875 -813 -778 -799 -806 -802 -790 -781 -495 -449 -401 -623 -567 -524 -242 -240 -246 -232 -200 -372 -276 65 114 95 34 -263 -268 -296 -267 4 4 -257 -259 -265 -282 -280 4 50 107 -51 293 316 339 361 165 251 570 584 614 602 533 199 140 372 317 297 297 -20 -128 6 -283 27 -272 -338 -351 -153 -216 -251 -242 -200 -185 -225 -516 -554 -622 -399 -432 -425 -446 -479 -480 -789 -848 -857 -888 -888 -873 -883 -860 -836 -828 -825 -806 -510 -471 -429 -402 -433 -487 -784 -803 -803 -815 -869 -647 -649 -877 -840 -819 -833 -855 -891 -879 -865 -852 -852 -831 -849 -885 -869 -824 -789 -499 -481 -774 -786 -804 -847 -873 -849 -819 -833 -827 -817 -777 -451 -439 -474 -465 -440 -466 -462 -491 -804 -836 -801 -492 -476 -490 -494 -465 -439 -389 -600 -584 -595 -609 -625 -627 -550 -150 -333 7 -126 285 199 388 826 760 970 1157 1580 1874 1947 2618 2784 3243 3928 4201 4005 4016 4000 4214 4122 3957 3327 2783 2349 1645 761 545 -98 -162 -859 -1550 -2379 -2795 -3386 -3652 -3856 -3766 -4097 -3826 -3720 -3841 -3912 -3722 -3928 -3512 -3204 -3141 -2824 -2262 -1986 -1749 -1811 -1653 -1219 -1285 -901 -1032 -717 -644 -795 -470 -613 -229 -332 46 -103 -31 262 276 260 -32 -107 58 -264 -344 -162 -226 -520 -538 -244 -159 -377 -303 29 78 -118 -122 -123 -119 -74 -31 -28 -73 121 67 31 42 88 -106 -55 -40 -62 -75 -63 -42 -39 -9 274 262 279 294 275 261 292 335 318 275 -20 -28 269 298 311 288 280 295 352 133 153 164 171 179 175 156 366 324 338 371 141 156 202 196 209 238 234 517 249 514 530 516 516 255 534 573 586 396 390 622 388 394 410 403 424 460 490 793 838 843 837 836 831 854 859 857 889 660 734 1057 1043 766 737 729 737 741 764 1055 1086 1112 1117 1131 899 921 945 955 985 1002 994 1004 1021 1310 1344 1372 1380 1376 1375 1323 1322 1359 1392 1177 1224 1258 1584 1623 1411 1442 1424 1413 1468 1512 1498 1523 1842 1903 1707 1675 1667 1694 1692 1707 1755 1777 2051 2069 2090 2125 2143 2137 2150 2175 1947 2012 2312 2311 2323 2342 2387 2386 2343 2342 2388 2401 2378 2360 2375 2394 2405 2392 2362 2334 2316 2314 2326 2307 2027 2021 2010 1982 1949 1945 2159 2126 2068 1787 1743 1694 1874 1835 1814 1478 1651 1590 1536 1253 1175 1382 1313 998 926 1112 1051 767 696 862 779 460 391 545 219 369 319 281 -14 -103 88 9 -276 -355 -143 -225 -243 -553 -562 -584 -620 -435 -509 -833 -876 -656 -716 -754 -1027 -1032 -1064 -1094 -1125 -918 -986 -1306 -1297 -998 -923 -920 -918 -972 -1017 -1291 -1295 -1330 -1334 -1340 -1320 -1307 -1322 -1313 -1296 -1290 -1311 -1333 -1337 -1331 -1354 -1378 -1393 -1391 -1370 -1368 -1330 -1306 -1293 -1293 -1018 -1300 -1337 -1359 -1346 -1337 -1324 -1312 -1293 -1005 -1006 -1302 -1329 -1331 -1320 -1298 -1320 -1334 -1320 -1314 -1289 -1284 -994 -976 -989 -1013 -1299 -1290 -1000 -954 -913 -919 -911 -1149 -1130 -1127 -1135 -1152 -920 -941 -934 -928 -913 -1146 -1145 -897 -1129 -1107 -1104 -1098 -1101 -1097 -1077 -1069 -1076 -768 -708 -697 -689 -655 -661 -702 -688 -878 -852 -873 -893 -882 -878 -867 -887 -658 -659 -650 -650 -856 -818 -799 -825 -842 -840 -831 -826 -795 -503 -496 -495 -481 -467 -461 -454 -471 -465 -440 -458 -474 -437 -421 -439 -461 -461 -446 -453 -437 -409 -409 -440 -462 -459 -454 -486 -492 -452 -428 -426 -430 -426 -433 -444 -478 -492 -786 -790 -510 -509 -497 -479 -415 -637 -619 -602 -617 -392 -424 -436 -435 -430 -434 -476 -778 -790 -816 -871 -867 -780 -461 -446 -456 -474 -500 -801 -813 -789 -495 -468 -428 -393 -385 -616 -608 -597 -573 -561 -514 -197 -162 -138 -380 -334 -278 -259 -280 -299 -270 58 126 -84 -65 -46 -109 84 63 58 83 -102 -27 293 130 199 521 556 575 575 580 601 617 603 531 209 191 199 184 144 361 303 -16 -84 122 91 35 11 -295 -323 -363 -142 -165 -176 -184 -214 -215 -514 -549 -556 -585 -617 -421 -477 -781 -802 -825 -836 -856 -862 -855 -813 -801 -504 -502 -506 -784 -499 -477 -446 -479 -512 -788 -805 -800 -807 -838 -842 -865 -877 -870 -865 -892 -658 -645 -869 -815 -789 -771 -788 -778 -782 -510 -504 -780 -801 -788 -512 -500 -500 -505 -783 -853 -662 -680 -886 -843 -818 -805 -512 -454 -443 -451 -464 -476 -457 -398 -637 -391 -391 -619 -626 -637 -403 -395 -627 -629 -639 -387 -407 -389 -611 -600 -578 -534 -210 -380 -321 53 -26 167 623 823 1048 1012 1190 1430 1715 2035 2665 3114 3603 3723 4103 4117 4141 4127 3802 3901 3633 2965 2678 2061 1172 822 -1 -250 -681 -1390 -1780 -2527 -3072 -3617 -3875 -3809 -4004 -4090 -4050 -4184 -3810 -4140 -4188 -3824 -3562 -3255 -2966 -2913 -2618 -2315 -1786 -1801 -1589 -1190 -1339 -985 -917 -1075 -746 -878 -493 -627 -248 -341 26 84 122 -126 78 19 -283 -324 -145 -209 -250 -551 -587 -597 -594 -578 -247 -198 -131 -287 46 81 92 101 107 107 78 38 -266 -303 -332 -301 10 54 74 66 45 13 -257 11 32 79 62 65 117 -114 -97 -93 -113 65 5 4 4 99 -27 302 291 -3 -34 -42 -31 -10 278 294 319 331 344 374 374 372 349 338 358 358 128 130 369 358 369 382 138 157 176 179 172 197 211 235 521 520 234 219 204 212 205 516 615 590 562 580 599 622 637 402 422 421 387 636 407 435 479 816 893 653 894 874 860 859 864 862 871 861 870 655 714 737 761 1041 1038 1034 1026 1042 1078 1096 1120 906 935 966 975 987 1281 1313 1340 1342 1353 1405 1185 1233 1278 1266 1238 1226 1247 1549 1564 1587 1613 1409 1457 1471 1513 1834 1893 1899 1884 1885 1919 1706 1734 1750 1750 1765 2060 2117 2121 2132 2171 1935 1947 1946 1956 1945 1922 2156 2157 1930 1972 2032 2334 2332 2041 2028 2033 2311 2330 2347 2362 2382 2375 2366 2348 2326 2020 1971 1933 1923 2127 2080 1784 1727 1912 1858 1796 1481 1412 1639 1628 1602 1550 1262 1196 1332 972 945 904 1122 1063 748 690 860 505 450 437 401 576 237 189 371 286 -34 -113 29 -325 -373 -151 -195 -244 -561 -610 -402 -456 -496 -788 -833 -641 -689 -711 -759 -1072 -1108 -1118 -1150 -927 -971 -980 -999 -1015 -1288 -1318 -1360 -1405 -1182 -1190 -1155 -1393 -1392 -1406 -1185 -1225 -1244 -1251 -1267 -1547 -1588 -1621 -1601 -1602 -1571 -1562 -1544 -1561 -1594 -1594 -1618 -1634 -1630 -1612 -1590 -1643 -1439 -1440 -1654 -1591 -1568 -1274 -1267 -1279 -1551 -1592 -1616 -1610 -1630 -1628 -1616 -1632 -1632 -1574 -1561 -1545 -1548 -1256 -1265 -1265 -1258 -1242 -1245 -1240 -1255 -1229 -1203 -1215 -1188 -1404 -1360 -1338 -1347 -1354 -1368 -1368 -1359 -1333 -1336 -1316 -1023 -1281 -1288 -1296 -1293 -1018 -999 -997 -990 -985 -1007 -1297 -1290 -1024 -1010 -1009 -1017 -1291 -1018 -1006 -988 -998 -1011 -1313 -1316 -1017 -982 -990 -967 -928 -898 -899 -905 -1123 -1124 -899 -923 -929 -906 -1094 -1053 -1032 -1060 -1102 -1105 -1105 -1106 -1116 -1140 -1146 -1126 -1115 -1109 -1112 -1103 -1077 -1061 -1065 -1067 -1103 -913 -935 -921 -1112 -1060 -1034 -761 -1028 -1033 -765 -763 -768 -1029 -756 -753 -751 -742 -726 -712 -717 -722 -725 -739 -765 -763 -686 -891 -651 -663 -661 -655 -676 -708 -665 -661 -866 -840 -808 -801 -855 -865 -861 -869 -880 -872 -854 -880 -687 -711 -699 -666 -884 -848 -826 -798 -807 -780 -782 -801 -828 -843 -806 -504 -456 -387 -620 -573 -566 -530 -231 -214 -169 -143 -355 -307 -260 81 125 118 95 89 -126 112 55 8 -267 30 69 -128 -51 269 341 155 210 255 523 555 625 407 433 434 441 435 401 629 605 562 251 196 129 299 -77 62 3 -303 -346 -377 -138 -148 -185 -220 -529 -556 -579 -586 -601 -385 -448 -476 -769 -787 -777 -805 -835 -643 -694 -700 -671 -655 -660 -670 -675 -674 -666 -880 -803 -779 -786 -499 -461 -460 -485 -788 -842 -896 -678 -690 -695 -743 -1064 -1118 -1117 -1088 -1080 -1037 -757 -755 -729 -723 -730 -726 -719 -710 -702 -701 -687 -661 -895 -664 -662 -679 -673 -657 -896 -642 -686 -725 -755 -756 -757 -713 -716 -734 -724 -725 -705 -693 -646 -880 -885 -650 -678 -661 -650 -891 -864 -860 -866 -861 -872 -852 -831 -796 -500 -474 -394 -542 -129 44 -33 139 597 802 763 991 1253 1805 2118 2269 2756 3246 3567 3957 3955 3914 3872 3516 3257 3114 2566 1915 996 391 93 -617 -764 -1226 -2095 -2853 -3232 -3568 -3826 -4077 -4323 -4512 -4544 -4503 -4612 -4283 -4234 -4361 -4149 -3896 -3628 -3043 -2704 -2603 -2039 -1781 -1827 -1626 -1177 -1357 -1317 -1300 -1004 -1152 -726 -801 -386 -248 -160 -340 -325 -350 -140 -161 -190 -232 -542 -572 -619 -419 -439 -424 -398 -625 -561 -232 -162 -372 -347 -314 -293 -284 -291 -311 -334 -358 -359 -342 -337 -351 -347 -358 -341 -301 3 42 69 75 95 -109 -109 113 98 124 -104 -98 -110 -101 -94 -116 126 120 125 -96 -56 -30 -3 -10 282 306 303 309 285 278 277 277 326 137 184 192 207 196 148 373 361 366 355 130 155 171 186 239 529 558 529 232 215 211 193 211 231 237 247 543 584 628 386 625 632 404 399 406 448 768 805 790 779 786 820 868 892 888 868 867 883 665 725 749 761 1025 1036 752 725 741 1032 1090 920 968 963 981 1006 1012 1018 1020 1310 1348 1329 1328 1360 1179 1235 1538 1565 1565 1558 1581 1624 1424 1457 1481 1516 1810 1849 1864 1896 1705 1733 1751 1763 1753 1760 1772 2049 2083 2107 2151 1940 1982 1970 1972 1991 2016 2021 2037 2320 2339 2335 2324 2354 2387 2427 2188 2205 2212 2191 2411 2374 2403 2194 2221 2244 2254 2278 2285 2281 2263 2200 2388 2365 2369 2367 2355 2335 2329 2045 2015 1998 1948 2143 2088 1763 1688 1888 1852 1831 1533 1492 1457 1653 1577 1268 1204 1399 1342 1290 974 935 1123 1027 668 802 448 634 563 248 238 182 333 -31 -115 68 0 -285 -315 -335 -144 -224 -530 -566 -604 -628 -630 -392 -405 -411 -465 -788 -845 -667 -710 -763 -1032 -763 -757 -1042 -1075 -1115 -903 -1137 -1122 -903 -945 -990 -996 -993 -1281 -1317 -1329 -1358 -1386 -1165 -1208 -1189 -1185 -1196 -1195 -1171 -1397 -1383 -1379 -1355 -1367 -1191 -1194 -1169 -1157 -1408 -1400 -1390 -1394 -1160 -1208 -1212 -1406 -1390 -1397 -1157 -1155 -1384 -1363 -1357 -1329 -1339 -1358 -1377 -1382 -1370 -1354 -1357 -1356 -1361 -1346 -1342 -1344 -1338 -1321 -1304 -1298 -1301 -1313 -1324 -1348 -1321 -1294 -995 -967 -987 -994 -995 -975 -938 -898 -1100 -1134 -919 -946 -948 -924 -962 -967 -968 -953 -929 -1150 -1108 -1093 -1123 -1134 -1134 -1130 -1107 -1106 -1124 -900 -907 -940 -964 -925 -1139 -1136 -1132 -1131 -1136 -1139 -1146 -1121 -1100 -1083 -1090 -1122 -1143 -1117 -1082 -1061 -1047 -1042 -1077 -1090 -1066 -1067 -1064 -1057 -1031 -761 -754 -1056 -1081 -1076 -1045 -760 -763 -1032 -1066 -1063 -1058 -1040 -726 -680 -709 -752 -1054 -1094 -1068 -760 -737 -732 -739 -725 -703 -689 -720 -714 -686 -687 -696 -714 -730 -704 -712 -711 -694 -688 -683 -707 -698 -689 -673 -663 -692 -712 -727 -738 -702 -670 -650 -656 -696 -671 -890 -831 -812 -832 -834 -817 -791 -790 -825 -834 -865 -865 -818 -832 -840 -823 -790 -504 -471 -455 -450 -454 -461 -445 -429 -407 -600 -514 -195 -196 -173 -175 -151 -343 -326 -312 -267 55 89 118 94 69 81 109 107 81 9 -283 -298 -285 21 88 -118 -48 281 149 536 597 609 384 403 396 400 634 600 588 582 581 512 198 147 352 302 -27 -105 64 -296 -355 -129 -150 -212 -517 -527 -551 -578 -632 -392 -432 -492 -836 -884 -895 -891 -643 -652 -676 -744 -1054 -1072 -1054 -1038 -740 -719 -740 -721 -730 -699 -664 -667 -686 -672 -646 -641 -677 -736 -763 -1073 -1080 -1056 -1049 -764 -750 -694 -680 -692 -729 -737 -714 -705 -695 -701 -693 -696 -650 -869 -868 -661 -733 -768 -761 -749 -706 -646 -879 -887 -654 -667 -885 -846 -842 -808 -798 -815 -860 -894 -658 -654 -642 -889 -680 -723 -728 -711 -693 -682 -651 -874 -876 -876 -881 -877 -645 -654 -651 -890 -868 -814 -484 -425 -611 -253 -349 47 -103 291 247 789 1042 962 1202 1524 2129 2284 2770 3273 3879 3724 3954 3941 3714 3928 3487 3394 2920 2340 1435 1057 198 -277 -419 -1107 -1662 -2421 -3145 -3317 -3859 -4121 -4089 -4323 -4641 -4288 -4401 -4061 -4355 -4085 -4008 -3773 -3708 -3069 -2724 -2651 -2321 -1769 -1800 -1599 -1398 -996 -1149 -1081 -762 -697 -843 -450 -564 -183 -343 29 -108 -54 -85 94 3 -372 -197 -246 -522 -554 -522 -188 -367 -311 -265 16 60 85 26 19 73 -110 -50 -37 -49 -100 96 60 69 94 71 55 39 21 48 75 -119 -98 -82 -26 312 334 302 264 -2 262 -11 -19 257 -1 -5 -6 261 -19 -20 260 289 323 345 136 137 376 372 346 308 283 -5 278 343 137 182 193 194 200 213 250 545 521 544 592 393 390 623 605 406 494 783 772 503 476 510 797 825 841 843 866 874 645 895 641 668 694 729 743 731 716 707 735 741 1062 1114 1109 1081 1101 1145 909 963 992 1014 1326 1358 1358 1339 1381 1398 1400 1391 1386 1158 1168 1162 1189 1256 1603 1410 1409 1641 1638 1637 1663 1465 1527 1827 1847 1519 1442 1605 1658 1836 1744 2101 2149 2137 2139 2117 2070 1755 1751 1764 2098 2171 1956 2004 2041 2325 2318 2350 2361 2335 2343 2359 2341 2375 2379 2333 2324 2386 2183 2230 2262 2278 2268 2254 2249 2267 2263 2271 2289 2253 2278 2571 2598 2567 2279 2236 2188 2183 2211 2208 2179 2405 2369 2365 2315 1943 2163 1930 1966 2019 2307 2013 1927 2112 1745 1673 1868 1836 1535 1448 1619 1562 1267 1259 1544 1250 1397 1285 1132 1045 739 719 702 675 867 799 497 423 591 524 211 131 319 289 261 -62 103 12 -300 -373 -203 -254 -239 -197 -202 -248 -542 -584 -601 -603 -606 -635 -435 -460 -769 -814 -790 -793 -801 -838 -871 -659 -656 -671 -721 -1034 -1056 -1031 -1060 -1074 -1062 -1041 -1098 -1130 -1139 -1110 -1147 -1123 -1121 -1062 -1095 -1088 -1145 -1019 -1012 -987 -963 -992 -986 -1003 -980 -920 -1114 -1078 -1123 -1143 -1139 -1136 -1116 -1084 -1086 -1116 -904 -921 -917 -1148 -1128 -1106 -1092 -1071 -1084 -1109 -1146 -904 -1140 -1077 -1094 -1108 -1150 -1120 -1125 -1122 -1130 -1110 -766 -708 -741 -1056 -1080 -1121 -1104 -1105 -1067 -1045 -1039 -729 -714 -713 -709 -743 -1042 -1035 -1029 -727 -660 -877 -889 -643 -882 -882 -672 -764 -1116 -951 -899 -1048 -708 -670 -673 -682 -688 -715 -723 -719 -693 -681 -698 -713 -704 -651 -896 -662 -672 -664 -659 -657 -667 -885 -842 -845 -858 -839 -839 -878 -646 -673 -708 -684 -644 -856 -799 -812 -889 -694 -716 -656 -860 -836 -838 -881 -646 -883 -642 -710 -724 -680 -883 -838 -807 -830 -871 -886 -837 -861 -643 -869 -868 -875 -863 -892 -653 -881 -838 -795 -816 -840 -857 -862 -647 -690 -653 -659 -894 -889 -811 -775 -808 -822 -871 -886 -892 -840 -821 -804 -806 -817 -785 -821 -788 -470 -446 -402 -422 -389 -408 -421 -473 -511 -459 -605 -245 -187 -135 -130 -343 -321 -359 -366 -369 -335 -315 11 35 24 -276 -332 -383 -157 -137 -136 -346 -279 66 -58 -1 310 364 372 383 166 222 249 198 359 286 -31 -20 285 294 277 -88 71 4 -275 -294 -157 -537 -609 -400 -636 -588 -559 -534 -618 -484 -779 -773 -492 -502 -813 -841 -824 -838 -839 -836 -870 -888 -646 -651 -880 -816 -774 -781 -785 -479 -462 -424 -397 -426 -486 -796 -793 -779 -510 -771 -822 -847 -862 -888 -664 -893 -874 -860 -850 -645 -655 -885 -804 -510 -788 -816 -804 -821 -835 -656 -663 -821 -804 -836 -677 -691 -663 -644 -861 -804 -776 -777 -878 -655 -849 -854 -799 -471 -447 -477 -770 -769 -494 -498 -506 -511 -511 -497 -786 -812 -778 -474 -485 -461 -427 -440 -433 -399 -409 -439 -486 -462 -607 -217 -342 16 75 -72 338 516 478 881 1049 974 1215 1501 2158 2630 3085 3294 3914 3785 3753 3734 3965 3917 3853 3309 3072 2200 1812 1145 566 69 -597 -736 -1264 -2024 -2770 -3222 -3523 -3720 -4175 -4384 -4390 -4029 -4167 -4160 -4223 -4179 -3777 -3533 -3239 -3148 -2833 -2262 -1986 -1700 -1438 -1256 -1393 -1320 -1284 -956 -1114 -737 -882 -502 -599 -172 -262 79 -106 -66 -86 -78 -84 -103 74 -294 -383 -192 -529 -541 -532 -235 -169 -129 -356 -273 87 -102 -100 -103 123 73 39 23 63 127 -100 -122 70 24 -271 6 30 79 98 -87 -36 -42 -87 -92 -106 -119 -94 -57 -49 -58 -57 -42 -46 -55 -80 -65 -42 -11 295 317 310 318 352 352 354 336 364 157 185 198 201 220 221 224 232 534 546 552 515 517 527 582 601 609 563 546 567 561 597 610 628 404 416 416 418 418 422 455 474 469 469 445 433 441 470 485 506 820 834 826 804 796 801 800 832 869 890 894 647 664 703 730 1034 1066 1076 1113 1141 932 971 989 982 991 1015 1295 1290 1284 1339 1398 1172 1201 1240 1226 1217 1224 1226 1242 1560 1646 1435 1436 1438 1500 1793 1818 1841 1852 1862 1854 1877 1678 1718 1743 1757 1764 1768 1770 2061 2067 2081 2098 2128 2150 2143 2162 2168 2014 2344 2353 2352 2321 2306 2021 1973 1968 1966 1989 2047 2365 2361 2352 2327 2016 1981 1975 2009 1988 1977 1950 1961 1965 1977 1992 1969 1932 1920 2152 2120 2088 2082 1782 1724 1907 1859 1822 1807 1489 1652 1613 1574 1259 1212 1176 1378 1323 1023 970 911 1105 1061 757 700 642 821 469 622 578 524 227 170 364 300 -13 -65 -128 74 8 -319 -376 -148 -187 -215 -220 -514 -596 -419 -468 -503 -478 -469 -505 -784 -821 -871 -651 -700 -759 -767 -753 -733 -749 -762 -1034 -1092 -1107 -1086 -760 -723 -724 -1044 -1118 -1122 -1101 -1112 -1115 -1091 -1066 -1053 -1089 -903 -963 -971 -949 -946 -916 -1147 -901 -915 -925 -950 -978 -1001 -1017 -1000 -1294 -1336 -1342 -1338 -1311 -995 -957 -969 -990 -1281 -1284 -1286 -1022 -1016 -1282 -1285 -994 -981 -974 -970 -936 -904 -1140 -1132 -1115 -1073 -1063 -1025 -768 -1058 -1078 -1107 -1111 -1126 -1135 -901 -1144 -1100 -1117 -1148 -899 -912 -1127 -1121 -1136 -1134 -1109 -1097 -1076 -1077 -1137 -1143 -1141 -1140 -1079 -1061 -1043 -1029 -1044 -1054 -751 -751 -1045 -1066 -1070 -1064 -1033 -1079 -1055 -730 -728 -1031 -1048 -1101 -1110 -1073 -1050 -1082 -1125 -1092 -747 -698 -716 -741 -761 -1038 -1048 -1039 -1032 -760 -729 -712 -694 -691 -697 -698 -687 -677 -658 -643 -653 -675 -701 -702 -679 -677 -664 -684 -701 -707 -682 -651 -646 -646 -652 -671 -685 -696 -700 -690 -689 -687 -676 -648 -888 -883 -888 -645 -886 -841 -819 -814 -828 -869 -657 -646 -884 -878 -652 -665 -658 -650 -648 -651 -865 -846 -847 -850 -850 -856 -862 -841 -798 -795 -798 -781 -782 -785 -788 -788 -785 -506 -509 -497 -458 -447 -468 -826 -804 -460 -386 -581 -547 -254 -202 -155 -337 -270 30 28 41 41 46 72 -108 -51 -32 -93 97 34 8 22 71 -100 -71 -39 285 363 173 213 234 528 573 616 394 393 563 185 171 225 237 192 354 -13 -90 92 46 13 -302 -351 -144 -175 -209 -229 -229 -177 -171 -230 -521 -552 -625 -423 -444 -452 -466 -504 -796 -837 -641 -893 -647 -643 -650 -683 -692 -676 -647 -869 -793 -490 -491 -478 -473 -489 -509 -780 -817 -831 -836 -865 -653 -697 -724 -761 -756 -724 -689 -713 -746 -720 -669 -653 -667 -663 -652 -657 -690 -706 -717 -691 -709 -712 -690 -667 -664 -667 -676 -689 -715 -732 -716 -694 -672 -688 -696 -673 -688 -696 -714 -704 -673 -655 -667 -675 -667 -671 -674 -680 -647 -872 -878 -887 -889 -881 -873 -870 -857 -827 -769 -433 -604 -529 -169 -299 114 303 514 462 680 1142 1373 1409 1740 2369 2555 3032 3664 3582 3863 3852 3845 3556 3654 3356 2703 2221 1888 997 630 88 -597 -1032 -1268 -1951 -2741 -3605 -3870 -4130 -4086 -4279 -4613 -4269 -4084 -4144 -4184 -3997 -4170 -3718 -3695 -3414 -3074 -2436 -2332 -1780 -1828 -1628 -1176 -1281 -952 -1129 -1048 -765 -703 -850 -436 -522 -366 -257 60 63 48 58 53 36 -267 -329 -150 -228 -555 -575 -545 -517 -235 -208 -141 -335 -286 30 73 102 123 -114 -94 -76 -88 -90 -116 -123 97 57 25 47 81 -114 -36 263 261 276 290 309 291 306 307 286 257 257 294 329 344 356 381 132 132 137 146 181 194 179 171 175 177 184 214 240 514 518 518 528 562 587 613 584 253 250 548 608 632 384 636 402 393 406 399 398 397 414 439 455 433 442 455 446 468 496 783 781 784 505 479 464 471 509 801 838 875 867 869 864 682 742 1038 1037 1028 765 1046 1063 1108 911 915 933 922 945 1017 1014 1000 1003 1017 1002 1006 985 1287 1321 1362 1365 1357 1328 1324 1364 1200 1538 1602 1626 1655 1423 1417 1446 1478 1497 1488 1795 1865 1893 1666 1702 1742 1788 2080 2087 2084 2070 2084 2097 2093 2098 2110 2140 2166 1950 1972 1979 1989 1982 2003 2014 1998 1994 2013 2029 2331 2342 2345 2334 2333 2346 2335 2305 2029 2323 2358 2370 2359 2367 2423 2179 2407 2365 2346 2324 2335 2353 2350 2323 2004 1952 2145 2111 2069 1776 1736 1701 1680 1917 1848 1498 1429 1618 1543 1240 1205 1153 1353 1307 1000 918 1061 714 642 800 473 418 638 592 545 522 240 133 257 -80 122 107 55 -295 -377 -154 -196 -527 -547 -589 -636 -433 -483 -784 -832 -871 -894 -668 -693 -711 -742 -1032 -1063 -1092 -1105 -1107 -1131 -1148 -899 -1131 -904 -972 -971 -973 -1005 -1285 -1012 -977 -978 -988 -998 -1010 -994 -966 -928 -932 -962 -1003 -1007 -1007 -1306 -1339 -1370 -1388 -1381 -1393 -1175 -1173 -1349 -1302 -1302 -1305 -1292 -1331 -1321 -1285 -1015 -1318 -1370 -1384 -1380 -1328 -1007 -946 -922 -944 -968 -983 -985 -988 -1006 -1295 -1325 -1341 -1316 -1282 -1285 -1285 -1019 -986 -968 -971 -969 -949 -942 -947 -942 -947 -944 -953 -939 -905 -1142 -1132 -1134 -1141 -905 -914 -906 -1122 -1101 -1080 -1035 -1031 -739 -749 -1046 -1065 -1049 -1056 -1083 -1083 -1103 -1088 -1029 -728 -737 -1030 -1040 -1031 -1049 -1032 -736 -712 -748 -1043 -1068 -1031 -737 -694 -663 -662 -659 -659 -867 -848 -839 -831 -842 -869 -642 -882 -861 -856 -872 -884 -890 -889 -887 -877 -843 -818 -816 -812 -809 -818 -849 -874 -859 -835 -804 -809 -796 -510 -480 -490 -792 -838 -864 -853 -864 -667 -690 -885 -806 -803 -833 -847 -830 -826 -864 -867 -865 -881 -881 -857 -851 -791 -476 -448 -420 -634 -631 -413 -466 -770 -826 -852 -839 -824 -820 -809 -775 -773 -812 -845 -858 -864 -873 -867 -836 -860 -862 -849 -804 -773 -509 -501 -502 -474 -451 -428 -402 -639 -624 -584 -543 -242 -203 -188 -140 -353 -331 -305 -259 22 26 25 18 -279 -318 -317 -299 -300 -270 54 -127 -52 -1 294 326 322 320 363 203 517 529 522 230 185 380 319 304 327 299 260 -44 -118 76 0 -338 -150 -253 -614 -419 -446 -456 -462 -462 -481 -493 -496 -817 -864 -685 -749 -1041 -1047 -1037 -1041 -1056 -1095 -1109 -1106 -1068 -1065 -1058 -1035 -760 -755 -1063 -1099 -1087 -1063 -1070 -1073 -1070 -1060 -1063 -1062 -1086 -1083 -1097 -1111 -1109 -1085 -1076 -1094 -1102 -1115 -1089 -1056 -740 -714 -757 -767 -768 -1025 -759 -757 -737 -729 -732 -744 -1053 -1117 -933 -930 -1127 -1090 -1100 -1094 -1047 -749 -766 -1062 -1068 -1035 -744 -731 -722 -703 -702 -694 -676 -649 -645 -653 -658 -648 -892 -875 -867 -848 -855 -857 -840 -807 -770 -458 -603 -234 -351 78 289 236 413 867 1079 1327 1634 1717 2374 2827 3052 3678 3850 3859 3578 3847 3864 3521 3247 2802 2227 1850 986 390 95 -622 -1065 -1258 -2110 -2845 -3411 -3464 -3961 -4129 -4093 -4232 -4473 -4093 -4196 -3974 -3986 -4127 -3915 -3622 -3066 -2736 -2662 -2337 -1774 -1508 -1559 -1401 -1290 -978 -1118 -729 -880 -797 -448 -591 -197 -298 94 -46 -21 -50 -71 115 35 -324 -206 -564 -569 -256 -513 -536 -524 -234 -200 -154 -356 -294 -267 9 51 65 90 89 95 73 50 29 44 67 51 30 -257 26 35 36 69 125 116 109 109 103 103 110 107 89 91 84 98 -124 -117 -92 -64 -49 -85 -102 -54 -50 -77 -64 -38 -5 294 322 335 368 379 146 151 382 360 306 260 271 348 145 175 168 146 149 176 219 242 512 514 251 228 211 224 518 571 628 423 421 407 406 419 428 432 423 415 413 421 438 440 464 500 786 792 802 817 845 883 892 645 895 673 736 1055 1079 1098 1093 1058 742 764 1097 904 947 972 1010 1299 1318 1323 1330 1332 1351 1388 1178 1209 1233 1245 1538 1578 1596 1621 1592 1266 1222 1560 1661 1432 1464 1501 1798 1835 1842 1860 1882 1891 1905 1698 1761 2067 2090 2133 1940 1958 1995 2008 2035 2318 2039 2305 2320 2338 2383 2384 2389 2396 2399 2420 2211 2192 2180 2187 2201 2223 2225 2230 2264 2278 2286 2295 2267 2237 2208 2207 2204 2180 2415 2424 2183 2422 2393 2331 2026 1998 1976 1950 2171 2118 2063 1759 1698 1889 1829 1507 1447 1620 1277 1223 1190 1394 1336 1004 932 1106 755 889 834 790 504 470 426 626 554 230 170 338 -17 -76 126 68 30 -281 -335 -166 -250 -551 -589 -389 -473 -794 -847 -648 -711 -759 -1041 -1078 -1120 -898 -919 -953 -974 -987 -995 -1017 -1296 -1328 -1340 -1360 -1364 -1361 -1346 -1345 -1369 -1398 -1407 -1159 -1159 -1182 -1189 -1192 -1201 -1211 -1213 -1207 -1199 -1186 -1173 -1173 -1185 -1195 -1201 -1213 -1226 -1200 -1184 -1156 -1159 -1182 -1168 -1401 -1403 -1168 -1174 -1168 -1391 -1382 -1383 -1394 -1397 -1404 -1399 -1393 -1388 -1376 -1373 -1373 -1387 -1371 -1341 -1319 -1343 -1382 -1160 -1171 -1166 -1170 -1394 -1336 -1311 -1291 -1299 -1308 -1324 -1326 -1312 -1303 -1291 -1290 -1324 -1314 -1308 -1022 -995 -984 -991 -957 -965 -982 -1003 -1326 -1319 -1287 -979 -945 -953 -1001 -1023 -1282 -1296 -1314 -1327 -1344 -1358 -1351 -1335 -1287 -1003 -972 -968 -974 -971 -961 -964 -968 -974 -986 -995 -995 -967 -939 -909 -905 -921 -920 -925 -935 -944 -943 -965 -971 -967 -984 -971 -957 -931 -918 -1150 -1145 -1133 -1136 -926 -924 -929 -913 -909 -1135 -1106 -1071 -1064 -1078 -1080 -1094 -1098 -1119 -1111 -1108 -1114 -1107 -1092 -1080 -1070 -1071 -1071 -1081 -1095 -1084 -1088 -1104 -1122 -1119 -1118 -1118 -1093 -1081 -1058 -1096 -1093 -1120 -1098 -1099 -1101 -1092 -1078 -1101 -1084 -767 -740 -737 -751 -1030 -1040 -1059 -1090 -1081 -768 -711 -676 -665 -641 -649 -883 -851 -832 -811 -784 -488 -449 -628 -581 -543 -239 -196 -164 -372 -330 -301 -315 -334 -317 -295 -306 -335 -134 -173 -155 -319 9 92 118 -94 262 349 183 240 552 566 575 571 560 518 214 191 164 140 357 323 291 -7 -72 114 32 -314 -140 -190 -241 -541 -571 -589 -586 -578 -589 -589 -617 -407 -463 -497 -792 -807 -831 -857 -876 -654 -716 -761 -1035 -1043 -1038 -760 -724 -704 -706 -694 -675 -663 -648 -880 -872 -877 -641 -674 -702 -721 -749 -767 -1030 -1051 -1090 -1103 -1095 -1094 -1109 -1096 -1069 -1058 -1053 -1059 -1056 -1041 -1047 -1044 -1036 -1046 -1070 -1074 -1085 -1075 -1072 -1064 -1054 -1052 -1060 -1050 -1044 -1050 -1059 -1038 -757 -742 -712 -692 -699 -716 -732 -740 -727 -727 -722 -721 -704 -679 -676 -680 -685 -690 -693 -675 -645 -894 -890 -874 -826 -503 -412 -553 -381 45 -14 189 393 846 1046 1011 1538 1850 1945 2614 3096 3320 3846 3954 3960 3919 3912 3563 3321 3160 2620 1748 1375 475 -88 -543 -706 -1183 -2058 -2846 -3219 -3555 -3818 -4057 -4321 -4527 -4534 -4679 -4291 -4272 -4259 -4405 -4192 -3925 -3632 -3031 -2689 -2626 -2324 -2052 -1803 -1585 -1398 -1007 -916 -1113 -1065 -718 -848 -470 -609 -240 -133 -302 13 38 26 -285 -361 -173 -251 -596 -417 -468 -466 -445 -412 -616 -569 -514 -218 -179 -145 -377 -376 -378 -373 -371 -377 -377 -133 -150 -197 -230 -247 -251 -229 -184 -378 -347 -334 -318 -296 -263 6 19 22 10 -266 7 -270 -296 -316 -332 -302 -325 -300 -306 -308 -326 -336 -307 -298 -288 -299 -278 -267 -259 12 20 50 47 36 30 43 77 70 96 123 -125 102 105 -124 -115 -87 -107 -106 -118 -126 -108 -88 -47 -41 -50 -39 -52 -21 258 296 328 314 330 334 340 368 130 152 160 171 204 221 247 525 562 591 625 388 389 404 408 398 410 439 486 784 826 865 867 872 641 674 681 700 747 1037 1068 1100 1122 1151 906 917 944 974 1003 1293 1345 1397 1178 1202 1233 1265 1557 1576 1603 1604 1622 1413 1440 1427 1648 1645 1433 1499 1813 1852 1864 1848 1821 1820 1828 1892 1702 1746 1775 2054 2081 2104 2135 2160 2175 1920 1934 1966 1991 1996 2003 2001 2004 2012 2044 2306 2017 1953 1954 1972 1983 1984 2010 1980 1966 1951 1963 1966 1944 1920 2151 2152 2143 2120 2098 2091 2074 1789 1755 1715 1909 1843 1795 1510 1479 1430 1647 1609 1555 1222 1400 1342 1286 957 1150 1100 1034 701 886 826 495 435 621 561 215 379 317 286 -35 -99 75 -259 -328 -143 -171 -176 -183 -216 -539 -617 -415 -469 -507 -822 -851 -881 -878 -644 -679 -690 -705 -730 -1039 -1109 -1148 -936 -966 -1006 -1283 -1013 -971 -943 -925 -924 -934 -950 -982 -1018 -1024 -1015 -1012 -1289 -1331 -1352 -1321 -1008 -954 -920 -917 -924 -921 -944 -959 -975 -978 -965 -950 -948 -951 -965 -967 -959 -938 -929 -903 -1145 -1150 -1144 -909 -914 -927 -925 -911 -1136 -1137 -1145 -1131 -1089 -1075 -1081 -1085 -1088 -1090 -1070 -1037 -742 -729 -741 -1028 -1067 -1067 -1037 -1025 -764 -764 -758 -759 -744 -723 -723 -715 -671 -644 -664 -683 -697 -691 -696 -669 -890 -868 -870 -841 -819 -817 -815 -806 -818 -843 -846 -838 -818 -818 -787 -773 -508 -491 -487 -472 -473 -492 -489 -463 -456 -497 -792 -807 -780 -777 -775 -791 -783 -510 -499 -486 -473 -450 -467 -466 -469 -464 -437 -426 -408 -424 -447 -445 -464 -478 -478 -477 -473 -495 -501 -773 -772 -795 -809 -791 -813 -774 -773 -490 -469 -478 -503 -512 -488 -480 -492 -496 -486 -469 -502 -491 -491 -778 -769 -804 -818 -829 -796 -502 -475 -442 -437 -464 -473 -473 -487 -494 -468 -439 -627 -579 -552 -576 -612 -612 -589 -596 -637 -410 -406 -438 -465 -465 -450 -438 -415 -430 -432 -402 -629 -614 -610 -602 -556 -255 -220 -196 -137 -351 -304 -275 0 32 84 -126 -71 -25 297 368 145 380 361 323 278 265 273 290 287 335 152 178 201 542 393 481 808 855 717 1061 1063 762 719 667 861 818 803 845 839 796 771 476 632 252 378 -3 -103 -119 -111 114 64 -260 -303 -311 -339 -176 -539 -537 -520 -533 -537 -580 -601 -606 -404 -483 -791 -809 -806 -793 -811 -854 -815 -501 -510 -485 -466 -451 -420 -629 -608 -625 -393 -441 -489 -796 -812 -855 -875 -839 -775 -506 -512 -771 -787 -802 -502 -503 -787 -792 -781 -503 -465 -444 -451 -446 -463 -498 -509 -462 -453 -476 -464 -439 -395 -625 -401 -434 -467 -494 -508 -489 -471 -474 -454 -429 -419 -428 -433 -442 -435 -429 -427 -427 -451 -467 -435 -399 -625 -635 -624 -611 -585 -546 -241 -195 -333 127 350 546 391 486 640 1134 1175 1799 1920 2293 2715 3205 3725 4040 4062 3976 4202 4211 4185 3775 3463 3191 2218 1798 950 396 -93 -513 -706 -1579 -2337 -2934 -3063 -3654 -3963 -4017 -4246 -4277 -4439 -4079 -4037 -4037 -4166 -3715 -3699 -3454 -3131 -2526 -2201 -2142 -1881 -1652 -1248 -1315 -987 -967 -1145 -750 -852 -436 -528 -186 -345 1 63 101 -120 117 88 33 -272 -314 -342 -155 -204 -246 -239 -211 -235 -513 -146 18 99 -93 -112 76 59 73 101 69 19 -262 -267 -295 -284 -267 7 -257 11 32 76 119 -89 -66 -46 -4 282 308 335 308 287 298 333 278 -50 -76 -5 266 270 307 339 323 283 271 297 328 343 329 319 331 335 362 159 181 184 225 243 221 176 203 522 597 390 394 399 400 384 612 565 529 555 590 621 606 572 571 614 385 424 474 496 469 474 501 811 652 686 648 887 648 680 716 767 1063 1089 1118 1144 1087 1033 745 741 767 1060 1103 1116 1115 1136 903 1149 1143 938 1019 1327 1321 1020 1295 1341 1400 1174 1158 1193 1186 1177 1232 1558 1598 1612 1628 1417 1443 1418 1413 1410 1660 1432 1512 1805 1806 1827 1844 1837 1866 1917 1914 1902 1906 1693 1777 2126 2137 2126 2091 2084 2081 2069 2096 2133 2140 1929 1981 1993 2005 1996 2005 2000 2008 2033 2332 2343 2348 2358 2322 2322 2364 2399 2370 2365 2403 2372 2360 2359 2367 2384 2393 2366 2314 1964 2153 2158 1956 1998 1983 1926 2123 2081 2074 2085 1783 1723 1893 1810 1496 1467 1470 1438 1633 1547 1200 1170 1371 1291 926 1131 1074 725 660 858 490 388 611 595 574 234 147 318 -7 -97 95 111 119 77 37 -268 -348 -165 -200 -241 -591 -429 -455 -446 -452 -433 -455 -486 -781 -822 -850 -870 -647 -764 -1098 -1084 -1056 -1115 -1109 -1126 -1099 -1094 -1106 -909 -955 -940 -933 -972 -981 -1018 -1308 -1310 -1371 -1323 -1292 -951 -898 -1139 -1149 -1139 -1134 -931 -974 -970 -993 -978 -925 -900 -1151 -1140 -1109 -1120 -1125 -1128 -1137 -1118 -1099 -1104 -1133 -1142 -1149 -927 -924 -938 -918 -1147 -1109 -1113 -1105 -1110 -1115 -1104 -1096 -1097 -1102 -1118 -1119 -1086 -1062 -1031 -726 -720 -730 -729 -709 -679 -652 -660 -709 -670 -688 -724 -705 -642 -840 -857 -684 -733 -738 -683 -660 -728 -735 -700 -679 -668 -873 -836 -787 -506 -778 -804 -830 -878 -506 -473 -823 -683 -697 -649 -834 -774 -490 -456 -447 -493 -791 -802 -803 -799 -808 -832 -802 -801 -492 -467 -505 -788 -819 -885 -864 -778 -452 -414 -411 -456 -488 -771 -463 -405 -402 -412 -476 -811 -846 -854 -834 -790 -462 -399 -435 -484 -780 -775 -473 -499 -788 -831 -861 -837 -782 -470 -447 -493 -462 -396 -415 -433 -494 -488 -497 -791 -822 -819 -793 -806 -844 -838 -814 -779 -772 -808 -829 -853 -820 -489 -425 -389 -621 -588 -548 -514 -541 -582 -635 -402 -593 -520 -380 -291 46 101 99 22 9 67 120 90 38 42 90 72 59 91 111 74 36 71 -54 329 143 170 157 355 352 369 137 360 317 342 373 362 367 350 316 261 -35 -43 -90 124 63 -279 -313 -315 -292 -372 -522 -565 -545 -513 -223 -223 -519 -617 -444 -478 -511 -802 -872 -656 -649 -861 -864 -872 -843 -823 -838 -848 -861 -812 -507 -486 -491 -483 -469 -771 -788 -505 -778 -801 -802 -791 -770 -485 -460 -471 -507 -811 -878 -895 -863 -819 -769 -501 -788 -786 -488 -474 -458 -447 -467 -452 -457 -802 -820 -814 -800 -810 -833 -777 -457 -438 -391 -605 -611 -416 -477 -511 -770 -504 -434 -633 -411 -451 -458 -472 -483 -797 -797 -789 -474 -431 -398 -399 -634 -603 -559 -535 -205 -175 -146 -318 125 276 162 624 852 1068 1017 1273 1809 2119 2214 2868 3390 3889 3972 4371 4422 4420 4404 4064 3830 3480 3018 2432 2048 1202 739 631 293 -203 -946 -1724 -2595 -2764 -3379 -3635 -3850 -3948 -3910 -3556 -3528 -3936 -3813 -3775 -3932 -3535 -3277 -3196 -2847 -2573 -2366 -2162 -1755 -1896 -1503 -1599 -1240 -1172 -1019 -1128 -722 -841 -485 -578 -130 -267 35 107 -96 -115 66 -306 -168 -521 -591 -616 -425 -406 -589 -238 -164 -375 -320 -265 13 35 5 26 71 122 -91 -102 -113 -102 -102 -103 -125 93 91 108 -104 -86 99 69 101 -63 277 282 -17 -28 -53 -59 -72 -79 -67 -48 -15 -18 263 299 306 317 320 284 -2 -16 -24 -3 307 335 363 148 152 136 138 181 227 170 352 161 199 252 247 561 616 614 398 397 392 637 386 408 418 421 426 442 462 480 495 768 794 816 843 872 853 835 848 651 692 714 721 726 735 758 1043 1073 1102 1118 1099 1088 1068 1030 1118 960 1006 1019 1007 1294 1318 1289 1288 1303 1309 1335 1406 1217 1252 1261 1558 1553 1255 1243 1547 1636 1413 1648 1632 1440 1492 1504 1512 1512 1535 1840 1913 1682 1692 1730 1754 1769 1782 2066 2131 1941 1961 1950 1958 1957 1954 1955 1952 1971 1992 2012 2023 2312 2373 2390 2376 2382 2370 2350 2349 2377 2406 2419 2413 2183 2177 2193 2203 2207 2190 2397 2386 2422 2216 2211 2204 2430 2372 2338 2359 2404 2423 2386 2357 2359 2350 2329 2332 2322 2018 1939 2132 2085 2064 1766 1714 1691 1844 1498 1464 1411 1595 1265 1164 1329 1289 1003 977 909 1086 738 887 801 492 433 623 564 514 203 138 322 -8 -98 57 -277 -352 -161 -207 -239 -563 -609 -385 -427 -451 -485 -771 -812 -834 -857 -890 -685 -738 -1031 -1075 -1108 -1108 -1150 -919 -906 -954 -1005 -1023 -1007 -1004 -994 -1288 -1298 -1301 -1337 -1373 -1358 -1334 -1327 -1306 -1300 -1310 -1297 -1285 -1299 -1316 -1330 -1348 -1354 -1362 -1386 -1395 -1370 -1329 -1331 -1329 -1308 -1282 -1322 -1360 -1356 -1327 -1293 -1004 -1007 -1309 -1331 -1320 -998 -928 -899 -1120 -1093 -1087 -1116 -1146 -903 -930 -940 -937 -961 -925 -899 -902 -939 -949 -956 -937 -924 -941 -941 -906 -1122 -1089 -1088 -1089 -1089 -1062 -1031 -758 -1070 -1089 -1087 -1077 -1072 -1038 -739 -734 -752 -1066 -1103 -1073 -1051 -1091 -1055 -1039 -766 -1038 -1072 -1102 -1100 -1096 -1094 -1052 -746 -713 -694 -707 -685 -886 -881 -655 -739 -1026 -1031 -746 -717 -683 -690 -711 -719 -1031 -1088 -1034 -704 -687 -718 -753 -1032 -1051 -1078 -1121 -1087 -1042 -744 -695 -669 -718 -726 -711 -718 -740 -764 -728 -699 -702 -715 -726 -723 -701 -723 -730 -765 -1071 -1091 -1086 -1062 -764 -744 -714 -702 -727 -1034 -1085 -1091 -1112 -1149 -897 -899 -1103 -1063 -1046 -1058 -1070 -1095 -1149 -929 -900 -1096 -1067 -1057 -1042 -1031 -741 -703 -693 -686 -675 -647 -865 -848 -825 -818 -802 -481 -414 -615 -595 -592 -622 -613 -588 -578 -250 -191 -173 -187 -222 -250 -556 -589 -567 -558 -528 -188 -342 -257 69 92 126 -63 -24 -28 -38 -71 -73 -80 -81 -88 -75 -76 -112 87 16 -273 -322 -136 -203 -255 -576 -386 -403 -421 -463 -770 -797 -818 -813 -800 -813 -872 -687 -716 -711 -702 -695 -711 -745 -763 -1059 -1047 -1106 -1076 -1037 -752 -737 -763 -759 -728 -682 -650 -884 -645 -668 -704 -712 -754 -1031 -1052 -1138 -1035 -1052 -1059 -1070 -1096 -1103 -1086 -1066 -1062 -1066 -763 -692 -889 -886 -645 -686 -713 -739 -743 -762 -743 -710 -711 -720 -736 -721 -719 -708 -668 -889 -890 -883 -645 -654 -676 -672 -648 -888 -646 -675 -690 -672 -649 -873 -834 -850 -653 -669 -884 -850 -785 -471 -409 -560 -137 64 -14 149 602 803 1024 975 1222 1513 2080 2183 2882 3413 3567 3731 3949 3934 3732 3960 3876 3619 2977 2499 2123 1221 879 362 -306 -457 -919 -1814 -2278 -2793 -3340 -3623 -3563 -3772 -4160 -4189 -4147 -3795 -4108 -4205 -4202 -3805 -3578 -3587 -3027 -2700 -2639 -2350 -2139 -1727 -1815 -1419 -1553 -1202 -1369 -998 -1139 -725 -825 -420 -542 -156 -306 42 56 9 -308 -365 -176 -523 -574 -401 -479 -780 -465 -408 -632 -576 -558 -538 -523 -201 -146 -133 -359 -321 -288 -331 -132 -373 -133 -145 -191 -217 -228 -234 -209 -206 -189 -167 -138 -329 -281 23 7 -263 -281 -288 -281 -296 -303 -306 -319 -320 -331 -358 -356 -304 17 50 72 93 91 90 95 83 43 24 12 28 57 102 -126 -93 -73 -73 -8 296 318 301 285 272 258 276 310 340 372 144 129 144 194 240 518 532 550 570 570 553 547 524 513 241 534 613 404 419 448 435 402 391 399 429 434 445 458 464 451 448 458 505 785 807 842 646 688 697 710 699 701 732 1066 1093 1131 1136 909 1151 916 966 977 990 992 1013 1309 1354 1352 1393 1172 1196 1244 1242 1236 1257 1553 1592 1416 1443 1467 1465 1525 1847 1835 1827 1828 1824 1801 1815 1857 1707 1736 1788 2105 2136 1923 2160 2136 2154 1956 1996 2020 1998 1960 1959 1970 1994 2030 2043 2305 2032 2003 1996 1969 1967 1952 1961 1984 2002 2008 1993 1982 1984 1953 2156 2124 2133 2124 2112 2075 1781 1730 1909 1862 1860 1853 1817 1491 1413 1606 1548 1237 1165 1340 1017 971 934 899 1113 1033 686 845 509 425 591 521 179 375 331 280 -7 -32 -96 74 -283 -349 -167 -236 -250 -539 -590 -387 -408 -451 -508 -822 -894 -710 -1029 -1099 -1134 -923 -973 -999 -1015 -1005 -987 -1019 -1315 -1350 -1386 -1166 -1154 -1405 -1396 -1381 -1365 -1379 -1404 -1159 -1175 -1194 -1203 -1183 -1197 -1213 -1206 -1200 -1220 -1228 -1237 -1277 -1547 -1238 -1195 -1167 -1159 -1162 -1162 -1159 -1402 -1403 -1191 -1239 -1239 -1182 -1173 -1175 -1181 -1237 -1542 -1276 -1271 -1544 -1262 -1205 -1381 -1362 -1375 -1389 -1403 -1403 -1161 -1185 -1172 -1386 -1337 -1291 -1290 -1287 -1285 -1306 -1348 -1380 -1360 -1327 -1310 -1308 -1333 -1366 -1375 -1369 -1322 -1299 -1287 -1020 -1019 -1022 -1285 -994 -996 -998 -970 -958 -964 -992 -1001 -1001 -958 -930 -936 -969 -991 -993 -984 -952 -909 -1146 -900 -899 -1152 -1152 -1120 -1109 -1104 -1125 -1137 -1151 -1121 -1089 -1067 -1041 -1061 -1116 -917 -946 -950 -976 -967 -921 -1150 -1140 -1130 -1118 -1104 -1104 -1125 -1129 -1133 -1111 -1085 -1071 -1076 -1093 -1087 -1067 -1039 -1050 -1083 -1097 -1091 -1100 -1095 -1092 -1101 -1110 -1120 -1116 -1105 -1078 -1072 -1075 -1058 -1054 -1075 -1064 -1072 -1053 -1038 -757 -764 -1076 -1078 -1067 -1055 -1080 -1093 -1078 -1109 -1140 -1144 -1136 -1125 -1116 -1096 -1081 -1060 -1071 -1074 -1055 -1049 -764 -725 -693 -667 -657 -875 -813 -802 -786 -509 -473 -420 -615 -563 -544 -218 -137 -361 -367 -372 -357 -348 -354 -383 -156 -154 -144 -380 -331 -260 65 -120 -24 335 363 357 345 343 330 339 356 349 340 337 348 366 372 341 -1 -103 48 -307 -380 -141 -167 -217 -521 -521 -544 -585 -592 -596 -611 -622 -416 -492 -791 -783 -772 -770 -805 -878 -664 -692 -725 -740 -737 -718 -706 -700 -714 -722 -732 -718 -654 -886 -889 -884 -881 -879 -848 -866 -894 -686 -707 -735 -711 -708 -703 -717 -754 -1034 -759 -725 -709 -706 -716 -728 -739 -718 -672 -661 -724 -1056 -1111 -1044 -705 -678 -893 -856 -880 -645 -653 -650 -658 -644 -879 -850 -812 -798 -506 -499 -777 -847 -644 -876 -830 -504 -490 -489 -797 -848 -855 -893 -860 -794 -425 -555 -186 -306 95 -29 302 178 612 834 1034 1315 1629 1712 2376 2860 3373 3543 3732 3770 3735 3754 3739 3904 3652 2969 2673 1754 1380 775 -1 -167 -867 -1381 -2049 -2531 -3363 -3692 -3958 -4199 -4456 -4627 -4647 -4321 -4463 -4230 -4225 -4081 -4105 -3523 -3202 -3167 -2874 -2603 -2345 -2076 -1817 -1654 -1279 -1157 -1343 -1282 -964 -1072 -877 -460 -626 -543 -203 -142 -132 -364 -364 -157 -233 -547 -536 -595 -404 -435 -457 -447 -413 -616 -547 -255 -206 -160 -375 -325 -304 -271 -274 -303 -322 -346 -363 -147 -201 -516 -255 -214 -175 -156 -147 -156 -140 -331 -270 -260 13 14 -279 -275 -272 -272 3 -273 -273 -264 17 40 40 64 95 88 64 60 63 79 78 85 111 -117 -95 -50 -28 -42 -57 -66 -52 -99 -121 -79 -31 271 283 277 277 277 265 -9 265 285 298 313 328 350 366 352 333 336 339 355 133 145 153 160 155 177 187 198 207 209 218 248 534 566 590 587 589 593 602 386 423 417 419 445 486 510 776 805 829 818 786 768 790 828 650 708 760 1054 1061 1052 1064 1078 1089 1112 897 949 990 1287 1317 1338 1366 1402 1198 1245 1267 1240 1237 1192 1168 1220 1573 1657 1442 1452 1454 1442 1431 1456 1519 1818 1849 1880 1912 1679 1696 1735 2062 2098 2103 2104 2088 2077 2118 2147 2159 2169 2170 1926 1941 1928 1934 1937 1968 2017 2008 2012 2011 1968 1932 2114 2091 2090 2124 2161 1932 1942 2168 2122 2063 1740 1696 1683 1688 1676 1890 1860 1838 1820 1530 1481 1425 1639 1601 1273 1214 1156 1330 996 938 1108 761 689 649 875 811 451 610 520 183 355 291 -70 92 60 8 -294 -357 -169 -219 -560 -389 -453 -471 -461 -481 -799 -853 -656 -707 -736 -746 -765 -1048 -1076 -1088 -1088 -1118 -903 -949 -981 -1302 -1322 -1309 -1294 -1320 -1338 -1339 -1333 -1330 -1324 -1355 -1383 -1157 -1192 -1218 -1226 -1254 -1277 -1280 -1538 -1537 -1547 -1266 -1247 -1271 -1557 -1576 -1589 -1604 -1595 -1546 -1225 -1184 -1174 -1173 -1201 -1231 -1237 -1220 -1214 -1221 -1213 -1194 -1160 -1386 -1371 -1362 -1366 -1390 -1389 -1158 -1190 -1195 -1232 -1225 -1197 -1398 -1354 -1325 -1324 -1351 -1350 -1319 -1325 -1350 -1347 -1326 -1328 -1334 -1321 -1303 -1288 -1291 -1290 -1290 -1296 -1320 -1339 -1346 -1337 -1332 -1324 -1311 -1312 -1294 -1012 -990 -1002 -994 -1005 -1005 -1000 -1002 -1004 -991 -965 -996 -1290 -1310 -1302 -1339 -1344 -1318 -990 -1129 -1142 -907 -940 -960 -966 -975 -981 -1016 -993 -952 -944 -965 -1005 -1284 -1003 -918 -1132 -1146 -911 -942 -976 -1020 -1012 -1016 -987 -944 -910 -1150 -1144 -1110 -1091 -1083 -1093 -1093 -1081 -1074 -1081 -1087 -1095 -1094 -1077 -1057 -1072 -1075 -1112 -1141 -1099 -1082 -1065 -1073 -1067 -1051 -1053 -1047 -1046 -1039 -1046 -1043 -1054 -1089 -1101 -1103 -1100 -1095 -1070 -1037 -768 -757 -1050 -1027 -742 -710 -693 -710 -708 -723 -705 -676 -892 -827 -496 -427 -389 -603 -581 -566 -544 -254 -214 -173 -374 -306 -259 10 29 41 64 81 63 4 -320 -341 -313 -264 100 -35 317 128 165 210 232 241 516 546 603 617 602 575 558 542 517 543 245 181 369 296 -51 -117 75 -288 -370 -187 -210 -194 -245 -524 -559 -542 -543 -589 -413 -788 -816 -885 -645 -876 -872 -868 -667 -679 -665 -685 -706 -717 -715 -729 -713 -709 -672 -641 -886 -860 -880 -660 -646 -892 -644 -658 -673 -679 -698 -727 -740 -738 -724 -744 -751 -718 -682 -683 -675 -648 -650 -666 -674 -693 -708 -699 -717 -738 -751 -768 -765 -736 -691 -694 -711 -707 -707 -713 -687 -643 -865 -869 -649 -683 -678 -681 -667 -892 -867 -849 -851 -884 -672 -704 -710 -679 -643 -854 -830 -806 -506 -477 -435 -633 -560 -190 -307 116 325 247 417 871 1083 1356 1441 2097 2289 2777 3264 3567 3950 3951 3928 3936 3889 3465 3375 2894 2331 1452 1078 245 17 -452 -1145 -1659 -2349 -2784 -3239 -3563 -4112 -4392 -4640 -4728 -4699 -4609 -4304 -4301 -4474 -4075 -3810 -3501 -3439 -3150 -2842 -2293 -2013 -1757 -1503 -1549 -1175 -1387 -1334 -1014 -910 -741 -805 -617 -210 -359 -326 -319 -328 -362 -136 -158 -217 -254 -558 -600 -403 -440 -472 -458 -425 -391 -610 -569 -250 -219 -187 -139 -356 -375 -165 -195 -165 -133 -140 -153 -157 -163 -146 -374 -351 -345 -340 -284 11 39 28 45 57 30 42 29 10 -270 13 39 52 53 51 46 58 58 65 102 -127 -108 -73 -23 -10 -11 -5 271 294 315 298 278 291 310 329 336 352 359 353 379 162 199 231 512 253 234 218 220 245 532 552 572 604 608 599 631 428 461 455 441 419 422 439 457 456 450 476 783 815 836 839 817 793 813 873 691 716 724 719 715 759 1072 1115 899 958 982 984 985 985 1009 1285 1311 1373 1161 1202 1232 1238 1228 1215 1232 1274 1561 1574 1577 1578 1564 1620 1638 1649 1447 1521 1824 1833 1821 1820 1804 1800 1825 1861 1687 1756 2069 2089 2115 2131 2113 2073 2092 2154 1970 1990 1995 2001 1980 1954 1984 2002 2046 2339 2363 2361 2380 2377 2382 2396 2400 2425 2209 2208 2190 2410 2381 2377 2424 2226 2254 2240 2212 2430 2400 2412 2399 2378 2345 2322 2309 2034 2010 1987 1963 2160 2088 2049 1768 1746 1720 1910 1825 1473 1410 1624 1577 1250 1201 1398 1327 1004 958 917 1087 1047 755 694 877 797 494 408 555 183 364 299 259 -25 -50 -94 81 9 -266 -292 -133 -242 -568 -607 -401 -424 -448 -490 -796 -856 -876 -849 -838 -643 -733 -1061 -1064 -1060 -1086 -1117 -1116 -1071 -1045 -1047 -1063 -1122 -907 -948 -963 -1003 -1309 -1291 -1288 -1307 -1339 -1363 -1372 -1386 -1371 -1363 -1388 -1184 -1208 -1205 -1180 -1393 -1341 -1327 -1347 -1361 -1350 -1313 -1288 -1293 -1310 -1362 -1176 -1169 -1321 -1000 -997 -1012 -990 -966 -1024 -1333 -1356 -1333 -1323 -1311 -1014 -932 -1127 -1138 -926 -980 -965 -942 -900 -1126 -1127 -904 -925 -1131 -1135 -1149 -930 -929 -913 -1132 -1072 -1054 -1039 -1045 -1042 -1043 -1048 -1043 -1064 -1047 -1037 -1072 -1069 -767 -761 -1056 -1078 -1055 -1027 -744 -735 -759 -1026 -1050 -1065 -1057 -1053 -1037 -765 -762 -767 -766 -737 -728 -738 -753 -1030 -1036 -1031 -1036 -1066 -1109 -1139 -1143 -1134 -1113 -1100 -1088 -1080 -1086 -1054 -740 -734 -1039 -1050 -1064 -1039 -745 -721 -668 -686 -744 -1037 -1032 -1031 -1028 -1035 -1026 -750 -689 -669 -680 -734 -1055 -1098 -1050 -702 -661 -871 -854 -819 -805 -836 -877 -884 -857 -880 -893 -644 -857 -816 -825 -846 -894 -890 -892 -871 -861 -896 -670 -676 -657 -891 -857 -780 -492 -496 -501 -485 -463 -458 -423 -405 -420 -633 -590 -518 -227 -206 -183 -200 -197 -197 -176 -366 -261 -264 -265 0 106 -124 119 95 33 -263 -261 78 94 -84 -25 317 380 193 253 532 582 597 618 633 637 547 233 180 163 361 329 348 323 296 256 -32 -79 102 -268 -142 -185 -193 -253 -536 -540 -538 -521 -237 -531 -567 -616 -628 -470 -798 -814 -853 -892 -861 -830 -818 -823 -862 -875 -866 -847 -858 -819 -511 -461 -436 -438 -434 -418 -445 -469 -445 -412 -416 -464 -503 -490 -443 -427 -444 -458 -425 -400 -415 -402 -389 -422 -466 -462 -451 -431 -465 -500 -808 -848 -834 -810 -798 -504 -456 -471 -471 -471 -500 -490 -430 -407 -419 -437 -430 -443 -467 -478 -448 -412 -422 -418 -477 -508 -483 -436 -637 -426 -466 -438 -406 -429 -442 -418 -620 -534 -228 -367 57 -24 156 583 799 1030 956 1400 1621 1707 2387 2855 3054 3555 4144 4038 